PE FL                   SPECTRUM    ASCII       PEDS        1.60        
  -1
PM3425~1
23/10/12
11:39:58.00
23/10/12
11:39:58.00


444.500000
1









LS55
15.00
5.00
5.00
SCAN
1
20
100
500
0
500
0
2
0
1
7
ON
500 450 
1 0 0
#HDR
-1
-1
#GR
NM

0.00002384185791015625
0.0
250.000000
0.500000
390
8
3.122595
-4.999999
#DATA
250.000000	-4.999999 
250.500000	-4.616350 
251.000000	-4.113593 
251.500000	-3.938292 
252.000000	-3.791548 
252.500000	-3.547189 
253.000000	-3.434337 
253.500000	-3.479088 
254.000000	-3.203497 
254.500000	-2.899675 
255.000000	-2.657402 
255.500000	-2.111574 
256.000000	-1.703598 
256.500000	-1.426689 
257.000000	-1.024911 
257.500000	-0.706998 
258.000000	-0.931209 
258.500000	-1.089117 
259.000000	-1.157768 
259.500000	-1.321424 
260.000000	-1.282095 
260.500000	-1.208740 
261.000000	-1.270747 
261.500000	-1.205605 
262.000000	-1.439232 
262.500000	-1.999310 
263.000000	-2.421455 
263.500000	-2.671774 
264.000000	-2.769233 
264.500000	-2.935528 
265.000000	-2.466795 
265.500000	-1.444374 
266.000000	-0.061082 
266.500000	0.877919  
267.000000	1.670525  
267.500000	2.260910  
268.000000	2.692759  
268.500000	2.856616  
269.000000	1.941563  
269.500000	0.762409  
270.000000	-0.147533 
270.500000	-1.005980 
271.000000	-2.238126 
271.500000	-3.055074 
272.000000	-3.383331 
272.500000	-3.199070 
273.000000	-2.509166 
273.500000	-2.111183 
274.000000	-1.605616 
274.500000	-0.827841 
275.000000	-0.422114 
275.500000	-0.434061 
276.000000	-0.530601 
276.500000	-0.797832 
277.000000	-1.396740 
277.500000	-2.118385 
278.000000	-3.026947 
278.500000	-3.752072 
279.000000	-4.049017 
279.500000	-4.179536 
280.000000	-4.055294 
280.500000	-3.621743 
281.000000	-2.985351 
281.500000	-2.498749 
282.000000	-2.114358 
282.500000	-1.942016 
283.000000	-1.853240 
283.500000	-1.919481 
284.000000	-2.259565 
284.500000	-2.723454 
285.000000	-2.656131 
285.500000	-2.296623 
286.000000	-1.921684 
286.500000	-1.509632 
287.000000	-1.095530 
287.500000	-0.806711 
288.000000	-0.463744 
288.500000	-0.441597 
289.000000	-1.028388 
289.500000	-1.436947 
290.000000	-1.870981 
290.500000	-2.139376 
291.000000	-2.502143 
291.500000	-2.895606 
292.000000	-3.129708 
292.500000	-3.082261 
293.000000	-2.800425 
293.500000	-2.489518 
294.000000	-1.888471 
294.500000	-1.224166 
295.000000	-0.367738 
295.500000	0.320475  
296.000000	0.649536  
296.500000	0.762620  
297.000000	0.556589  
297.500000	-0.063799 
298.000000	-0.570171 
298.500000	-0.956972 
299.000000	-1.395590 
299.500000	-1.692257 
300.000000	-2.072011 
300.500000	-2.650844 
301.000000	-2.881208 
301.500000	-2.737769 
302.000000	-2.607612 
302.500000	-2.291620 
303.000000	-1.719786 
303.500000	-1.308254 
304.000000	-0.989167 
304.500000	-0.590352 
305.000000	-0.407922 
305.500000	-0.356307 
306.000000	-0.095844 
306.500000	0.118536  
307.000000	0.076163  
307.500000	0.286898  
308.000000	0.117040  
308.500000	-0.429157 
309.000000	-0.792187 
309.500000	-1.351331 
310.000000	-1.735530 
310.500000	-1.796323 
311.000000	-1.467511 
311.500000	-1.121876 
312.000000	-0.403552 
312.500000	0.271475  
313.000000	0.788350  
313.500000	1.387642  
314.000000	1.734295  
314.500000	1.986189  
315.000000	2.181272  
315.500000	2.459147  
316.000000	2.549945  
316.500000	2.440279  
317.000000	2.288064  
317.500000	2.247167  
318.000000	2.291621  
318.500000	2.246557  
319.000000	2.187579  
319.500000	2.211043  
320.000000	2.359179  
320.500000	2.498024  
321.000000	2.535145  
321.500000	2.426836  
322.000000	2.129609  
322.500000	1.697391  
323.000000	1.116487  
323.500000	0.416093  
324.000000	-0.008670 
324.500000	-0.170761 
325.000000	-0.224492 
325.500000	0.083088  
326.000000	0.659147  
326.500000	1.149973  
327.000000	1.586345  
327.500000	1.714889  
328.000000	1.715309  
328.500000	1.795126  
329.000000	1.886696  
329.500000	1.904198  
330.000000	2.146158  
330.500000	2.521434  
331.000000	2.846855  
331.500000	3.122595  
332.000000	3.081012  
332.500000	2.989399  
333.000000	2.862867  
333.500000	2.732059  
334.000000	2.645566  
334.500000	2.545571  
335.000000	2.368006  
335.500000	2.186383  
336.000000	2.049535  
336.500000	1.771163  
337.000000	1.482327  
337.500000	1.254338  
338.000000	1.112350  
338.500000	1.185222  
339.000000	1.358473  
339.500000	1.475479  
340.000000	1.510245  
340.500000	1.552131  
341.000000	1.623334  
341.500000	1.577766  
342.000000	1.633784  
342.500000	1.700655  
343.000000	1.883255  
343.500000	2.138024  
344.000000	2.352799  
344.500000	2.399476  
345.000000	2.291163  
345.500000	2.231929  
346.000000	1.994254  
346.500000	1.812287  
347.000000	1.708069  
347.500000	1.622716  
348.000000	1.610533  
348.500000	1.684596  
349.000000	1.739498  
349.500000	1.757177  
350.000000	1.762435  
350.500000	1.662544  
351.000000	1.516559  
351.500000	1.427112  
352.000000	1.380077  
352.500000	1.359028  
353.000000	1.431653  
353.500000	1.489855  
354.000000	1.579835  
354.500000	1.636377  
355.000000	1.711943  
355.500000	1.678157  
356.000000	1.607116  
356.500000	1.477894  
357.000000	1.296886  
357.500000	1.192451  
358.000000	1.118102  
358.500000	1.083149  
359.000000	1.035899  
359.500000	1.050525  
360.000000	1.127811  
360.500000	1.150841  
361.000000	1.058221  
361.500000	0.967483  
362.000000	0.943693  
362.500000	0.940483  
363.000000	0.914495  
363.500000	0.848970  
364.000000	0.801446  
364.500000	0.804250  
365.000000	0.853726  
365.500000	0.830872  
366.000000	0.889327  
366.500000	1.084477  
367.000000	1.335670  
367.500000	1.681899  
368.000000	1.974925  
368.500000	2.245342  
369.000000	2.499499  
369.500000	2.604892  
370.000000	2.488792  
370.500000	2.302657  
371.000000	2.120155  
371.500000	1.846440  
372.000000	1.629014  
372.500000	1.383730  
373.000000	1.165255  
373.500000	1.057396  
374.000000	0.952233  
374.500000	0.830151  
375.000000	0.766438  
375.500000	0.812364  
376.000000	0.845385  
376.500000	0.903650  
377.000000	0.972005  
377.500000	1.000987  
378.000000	1.120494  
378.500000	1.203964  
379.000000	1.233113  
379.500000	1.301301  
380.000000	1.422434  
380.500000	1.550335  
381.000000	1.633085  
381.500000	1.701294  
382.000000	1.727685  
382.500000	1.800399  
383.000000	1.809081  
383.500000	1.734575  
384.000000	1.617106  
384.500000	1.482877  
385.000000	1.317521  
385.500000	1.147789  
386.000000	1.012095  
386.500000	0.940547  
387.000000	0.993726  
387.500000	1.094817  
388.000000	1.198299  
388.500000	1.372648  
389.000000	1.544693  
389.500000	1.695945  
390.000000	1.753565  
390.500000	1.744238  
391.000000	1.700088  
391.500000	1.629582  
392.000000	1.544768  
392.500000	1.361404  
393.000000	1.220449  
393.500000	1.117393  
394.000000	1.119021  
394.500000	1.126541  
395.000000	1.183002  
395.500000	1.264552  
396.000000	1.331956  
396.500000	1.430485  
397.000000	1.473857  
397.500000	1.482459  
398.000000	1.414591  
398.500000	1.381784  
399.000000	1.381971  
399.500000	1.430443  
400.000000	1.465779  
400.500000	1.471000  
401.000000	1.483574  
401.500000	1.548329  
402.000000	1.584263  
402.500000	1.553326  
403.000000	1.481623  
403.500000	1.426062  
404.000000	1.430570  
404.500000	1.414822  
405.000000	1.356615  
405.500000	1.256604  
406.000000	1.243072  
406.500000	1.255051  
407.000000	1.251314  
407.500000	1.212887  
408.000000	1.165789  
408.500000	1.174052  
409.000000	1.198769  
409.500000	1.206106  
410.000000	1.216660  
410.500000	1.264367  
411.000000	1.360452  
411.500000	1.478143  
412.000000	1.580705  
412.500000	1.656572  
413.000000	1.707195  
413.500000	1.724242  
414.000000	1.687307  
414.500000	1.632239  
415.000000	1.547858  
415.500000	1.461874  
416.000000	1.403757  
416.500000	1.362648  
417.000000	1.385239  
417.500000	1.405578  
418.000000	1.428783  
418.500000	1.450690  
419.000000	1.485315  
419.500000	1.503799  
420.000000	1.491897  
420.500000	1.466321  
421.000000	1.420681  
421.500000	1.405444  
422.000000	1.363966  
422.500000	1.306537  
423.000000	1.251832  
423.500000	1.207162  
424.000000	1.174269  
424.500000	1.151727  
425.000000	1.147361  
425.500000	1.168710  
426.000000	1.229870  
426.500000	1.294341  
427.000000	1.376449  
427.500000	1.428047  
428.000000	1.429442  
428.500000	1.382218  
429.000000	1.289964  
429.500000	1.153401  
430.000000	1.027854  
430.500000	0.906376  
431.000000	0.822812  
431.500000	0.825266  
432.000000	0.870395  
432.500000	0.943303  
433.000000	1.033039  
433.500000	1.116232  
434.000000	1.161798  
434.500000	1.187458  
435.000000	1.181872  
435.500000	1.146249  
436.000000	1.120839  
436.500000	1.103205  
437.000000	1.088057  
437.500000	1.096945  
438.000000	1.118126  
438.500000	1.124958  
439.000000	1.136744  
439.500000	1.142583  
440.000000	1.142786  
440.500000	1.143317  
441.000000	1.146653  
441.500000	1.147949  
442.000000	1.146258  
442.500000	1.162578  
443.000000	1.177404  
443.500000	1.177126  
444.000000	1.165415  
444.500000	1.139168  

