PE FL                   SPECTRUM    ASCII       PEDS        1.60        
  -1
PMPPP_~4
23/10/12
10:59:20.00
23/10/12
10:59:20.00


894.500000
1









LS55
316.00
5.00
5.00
SCAN
1
20
100
500
0
100
0
1
0
1
7
ON
900 316 
1 0 0
#HDR
-1
-1
#GR
NM

0.00002384185791015625
0.0
330.000000
0.500000
1130
8
86.658040
-1.308687
#DATA
330.000000	4.696000  
330.500000	6.856586  
331.000000	8.822988  
331.500000	10.612675 
332.000000	12.101058 
332.500000	13.310380 
333.000000	14.262261 
333.500000	15.020869 
334.000000	15.706228 
334.500000	16.474432 
335.000000	17.406789 
335.500000	18.389024 
336.000000	19.497163 
336.500000	20.765015 
337.000000	22.131445 
337.500000	23.498905 
338.000000	24.861851 
338.500000	26.228036 
339.000000	27.674494 
339.500000	29.321468 
340.000000	31.158589 
340.500000	33.203746 
341.000000	35.531325 
341.500000	38.026137 
342.000000	40.543337 
342.500000	43.065211 
343.000000	45.430201 
343.500000	47.628193 
344.000000	49.698610 
344.500000	51.813035 
345.000000	53.937368 
345.500000	56.157589 
346.000000	58.460015 
346.500000	60.786280 
347.000000	63.081522 
347.500000	65.230044 
348.000000	67.198064 
348.500000	68.873858 
349.000000	70.339948 
349.500000	71.655941 
350.000000	72.967880 
350.500000	74.331741 
351.000000	75.598853 
351.500000	76.722510 
352.000000	77.721007 
352.500000	78.718750 
353.000000	79.623580 
353.500000	80.403259 
354.000000	81.020544 
354.500000	81.554234 
355.000000	82.200605 
355.500000	82.732233 
356.000000	83.094112 
356.500000	83.350829 
357.000000	83.618890 
357.500000	83.955664 
358.000000	84.383505 
358.500000	84.768496 
359.000000	85.217041 
359.500000	85.807239 
360.000000	86.274613 
360.500000	86.547179 
361.000000	86.658040 
361.500000	86.526962 
362.000000	86.044179 
362.500000	85.335407 
363.000000	84.480811 
363.500000	83.644057 
364.000000	82.765277 
364.500000	81.927167 
365.000000	81.152244 
365.500000	80.473383 
366.000000	79.957440 
366.500000	79.380153 
367.000000	78.733962 
367.500000	78.073286 
368.000000	77.450279 
368.500000	76.780319 
369.000000	76.115400 
369.500000	75.570680 
370.000000	75.116810 
370.500000	74.789120 
371.000000	74.381532 
371.500000	73.852217 
372.000000	73.278942 
372.500000	72.632716 
373.000000	71.960262 
373.500000	71.134380 
374.000000	70.318500 
374.500000	69.510980 
375.000000	68.773294 
375.500000	67.779997 
376.000000	66.857494 
376.500000	65.869119 
377.000000	64.692508 
377.500000	63.523028 
378.000000	62.266799 
378.500000	60.990873 
379.000000	59.878977 
379.500000	59.048840 
380.000000	58.257062 
380.500000	57.925190 
381.000000	57.724506 
381.500000	57.284599 
382.000000	56.754432 
382.500000	56.029547 
383.000000	55.031627 
383.500000	53.788742 
384.000000	52.415815 
384.500000	50.996140 
385.000000	49.863219 
385.500000	49.025208 
386.000000	48.253103 
386.500000	47.477352 
387.000000	46.686530 
387.500000	45.901333 
388.000000	45.141909 
388.500000	44.245189 
389.000000	43.466971 
389.500000	42.767027 
390.000000	42.145021 
390.500000	41.617470 
391.000000	41.084734 
391.500000	40.273032 
392.000000	39.250379 
392.500000	38.147963 
393.000000	36.810330 
393.500000	35.453190 
394.000000	34.092286 
394.500000	32.715714 
395.000000	31.492050 
395.500000	30.600265 
396.000000	29.766956 
396.500000	29.081963 
397.000000	28.679569 
397.500000	28.397809 
398.000000	28.133745 
398.500000	27.959546 
399.000000	27.739700 
399.500000	27.330593 
400.000000	26.957345 
400.500000	26.388396 
401.000000	25.730559 
401.500000	25.182972 
402.000000	24.758538 
402.500000	24.343193 
403.000000	23.984443 
403.500000	23.712310 
404.000000	23.499824 
404.500000	23.361232 
405.000000	23.115448 
405.500000	22.807548 
406.000000	22.509031 
406.500000	22.298224 
407.000000	22.127747 
407.500000	21.946274 
408.000000	21.713820 
408.500000	21.519659 
409.000000	21.321382 
409.500000	21.100670 
410.000000	20.824709 
410.500000	20.554898 
411.000000	20.336269 
411.500000	20.237475 
412.000000	20.218839 
412.500000	20.201973 
413.000000	20.206412 
413.500000	20.172223 
414.000000	20.091855 
414.500000	19.921717 
415.000000	19.605815 
415.500000	19.183211 
416.000000	18.787516 
416.500000	18.469835 
417.000000	18.180394 
417.500000	17.933830 
418.000000	17.818518 
418.500000	17.746826 
419.000000	17.633581 
419.500000	17.400830 
420.000000	16.993542 
420.500000	16.582034 
421.000000	16.197876 
421.500000	15.875859 
422.000000	15.535243 
422.500000	15.388759 
423.000000	15.316855 
423.500000	15.276672 
424.000000	15.191221 
424.500000	14.913518 
425.000000	14.561274 
425.500000	14.078267 
426.000000	13.536640 
426.500000	12.853856 
427.000000	12.258499 
427.500000	11.755773 
428.000000	11.334143 
428.500000	11.029166 
429.000000	10.703736 
429.500000	10.450010 
430.000000	10.276003 
430.500000	10.156722 
431.000000	9.976919  
431.500000	9.796418  
432.000000	9.674476  
432.500000	9.510713  
433.000000	9.403339  
433.500000	9.193311  
434.000000	8.942188  
434.500000	8.804247  
435.000000	8.707020  
435.500000	8.545247  
436.000000	8.278934  
436.500000	8.133799  
437.000000	7.938678  
437.500000	7.826752  
438.000000	7.708182  
438.500000	7.514718  
439.000000	7.452946  
439.500000	7.523533  
440.000000	7.609185  
440.500000	7.611989  
441.000000	7.765450  
441.500000	7.832163  
442.000000	7.862446  
442.500000	7.831467  
443.000000	7.577887  
443.500000	7.279841  
444.000000	7.017046  
444.500000	6.752237  
445.000000	6.305952  
445.500000	5.938036  
446.000000	5.595026  
446.500000	5.367454  
447.000000	5.259663  
447.500000	5.072236  
448.000000	4.822393  
448.500000	4.569732  
449.000000	4.361948  
449.500000	4.008066  
450.000000	3.672781  
450.500000	3.326978  
451.000000	3.061592  
451.500000	2.965248  
452.000000	2.986594  
452.500000	3.112608  
453.000000	3.281664  
453.500000	3.521320  
454.000000	3.765625  
454.500000	4.036870  
455.000000	4.254195  
455.500000	4.349953  
456.000000	4.435223  
456.500000	4.453294  
457.000000	4.486233  
457.500000	4.389090  
458.000000	4.062646  
458.500000	3.685739  
459.000000	3.345273  
459.500000	3.122923  
460.000000	2.867526  
460.500000	2.751736  
461.000000	2.664394  
461.500000	2.775860  
462.000000	2.914195  
462.500000	2.935346  
463.000000	2.938433  
463.500000	2.916946  
464.000000	2.975326  
464.500000	2.949556  
465.000000	2.997805  
465.500000	2.957270  
466.000000	3.033756  
466.500000	3.090177  
467.000000	3.082399  
467.500000	3.014485  
468.000000	2.881893  
468.500000	2.763635  
469.000000	2.625828  
469.500000	2.542987  
470.000000	2.370733  
470.500000	2.239934  
471.000000	2.100504  
471.500000	2.065341  
472.000000	2.145190  
472.500000	2.313860  
473.000000	2.521743  
473.500000	2.683557  
474.000000	2.882618  
474.500000	2.958896  
475.000000	2.922911  
475.500000	2.723464  
476.000000	2.469912  
476.500000	2.210093  
477.000000	1.985333  
477.500000	1.864530  
478.000000	1.803377  
478.500000	1.871589  
479.000000	1.967392  
479.500000	2.054077  
480.000000	2.048463  
480.500000	1.996008  
481.000000	1.817803  
481.500000	1.511430  
482.000000	1.259767  
482.500000	1.053108  
483.000000	1.003645  
483.500000	1.043862  
484.000000	1.139689  
484.500000	1.288725  
485.000000	1.500115  
485.500000	1.560103  
486.000000	1.430665  
486.500000	1.284172  
487.000000	1.160157  
487.500000	1.118385  
488.000000	1.145959  
488.500000	1.180162  
489.000000	1.260238  
489.500000	1.418396  
490.000000	1.453493  
490.500000	1.289249  
491.000000	1.061953  
491.500000	0.865169  
492.000000	0.772479  
492.500000	0.808581  
493.000000	0.895443  
493.500000	1.021610  
494.000000	1.190146  
494.500000	1.339927  
495.000000	1.306263  
495.500000	1.082484  
496.000000	0.854534  
496.500000	0.686346  
497.000000	0.588418  
497.500000	0.560021  
498.000000	0.565156  
498.500000	0.552443  
499.000000	0.620763  
499.500000	0.698316  
500.000000	0.613134  
500.500000	0.545717  
501.000000	0.485371  
501.500000	0.417164  
502.000000	0.373369  
502.500000	0.357439  
503.000000	0.254726  
503.500000	0.176990  
504.000000	0.134407  
504.500000	-0.022704 
505.000000	-0.144084 
505.500000	-0.217975 
506.000000	-0.302133 
506.500000	-0.299924 
507.000000	-0.196342 
507.500000	-0.107408 
508.000000	0.041421  
508.500000	0.270307  
509.000000	0.482222  
509.500000	0.685582  
510.000000	0.860315  
510.500000	0.827853  
511.000000	0.719261  
511.500000	0.587470  
512.000000	0.373601  
512.500000	0.188146  
513.000000	0.089739  
513.500000	0.067345  
514.000000	0.151180  
514.500000	0.377547  
515.000000	0.442235  
515.500000	0.435596  
516.000000	0.403293  
516.500000	0.297711  
517.000000	0.137552  
517.500000	0.004450  
518.000000	-0.112785 
518.500000	-0.154212 
519.000000	-0.006860 
519.500000	0.094434  
520.000000	0.170912  
520.500000	0.240812  
521.000000	0.268290  
521.500000	0.245708  
522.000000	0.224687  
522.500000	0.221157  
523.000000	0.150149  
523.500000	0.129619  
524.000000	0.094036  
524.500000	0.071385  
525.000000	0.060842  
525.500000	0.079245  
526.000000	0.134983  
526.500000	0.242750  
527.000000	0.469972  
527.500000	0.669965  
528.000000	0.817450  
528.500000	0.880319  
529.000000	0.901358  
529.500000	0.847076  
530.000000	0.697890  
530.500000	0.576763  
531.000000	0.495987  
531.500000	0.508310  
532.000000	0.568267  
532.500000	0.685700  
533.000000	0.792855  
533.500000	0.906851  
534.000000	0.941774  
534.500000	0.802285  
535.000000	0.604498  
535.500000	0.388258  
536.000000	0.136139  
536.500000	-0.126481 
537.000000	-0.340378 
537.500000	-0.466311 
538.000000	-0.460494 
538.500000	-0.365305 
539.000000	-0.275582 
539.500000	-0.160305 
540.000000	-0.054640 
540.500000	0.024706  
541.000000	-0.008406 
541.500000	-0.098099 
542.000000	-0.184265 
542.500000	-0.283636 
543.000000	-0.325745 
543.500000	-0.306149 
544.000000	-0.183259 
544.500000	-0.009840 
545.000000	0.162607  
545.500000	0.251349  
546.000000	0.265134  
546.500000	0.216394  
547.000000	0.026030  
547.500000	-0.212731 
548.000000	-0.468613 
548.500000	-0.630046 
549.000000	-0.625565 
549.500000	-0.536618 
550.000000	-0.454976 
550.500000	-0.351701 
551.000000	-0.273731 
551.500000	-0.302406 
552.000000	-0.377249 
552.500000	-0.519303 
553.000000	-0.692240 
553.500000	-0.751831 
554.000000	-0.744022 
554.500000	-0.692506 
555.000000	-0.581444 
555.500000	-0.481049 
556.000000	-0.417177 
556.500000	-0.321618 
557.000000	-0.170891 
557.500000	-0.036548 
558.000000	0.159321  
558.500000	0.408572  
559.000000	0.641251  
559.500000	0.826889  
560.000000	0.948037  
560.500000	0.886806  
561.000000	0.678790  
561.500000	0.426552  
562.000000	0.097557  
562.500000	-0.229990 
563.000000	-0.457002 
563.500000	-0.601458 
564.000000	-0.659651 
564.500000	-0.598085 
565.000000	-0.525419 
565.500000	-0.500784 
566.000000	-0.466229 
566.500000	-0.481271 
567.000000	-0.566588 
567.500000	-0.634908 
568.000000	-0.685096 
568.500000	-0.733181 
569.000000	-0.733601 
569.500000	-0.689013 
570.000000	-0.645076 
570.500000	-0.561826 
571.000000	-0.446683 
571.500000	-0.353565 
572.000000	-0.270841 
572.500000	-0.202741 
573.000000	-0.130944 
573.500000	-0.102157 
574.000000	-0.103193 
574.500000	-0.159682 
575.000000	-0.267245 
575.500000	-0.349797 
576.000000	-0.390027 
576.500000	-0.416823 
577.000000	-0.416843 
577.500000	-0.335487 
578.000000	-0.244568 
578.500000	-0.148108 
579.000000	-0.052731 
579.500000	-0.012807 
580.000000	-0.016734 
580.500000	-0.072010 
581.000000	-0.178197 
581.500000	-0.333243 
582.000000	-0.440719 
582.500000	-0.534366 
583.000000	-0.601583 
583.500000	-0.586947 
584.000000	-0.538203 
584.500000	-0.448515 
585.000000	-0.375268 
585.500000	-0.318409 
586.000000	-0.327252 
586.500000	-0.374978 
587.000000	-0.463853 
587.500000	-0.588662 
588.000000	-0.694939 
588.500000	-0.771179 
589.000000	-0.825012 
589.500000	-0.909678 
590.000000	-0.976540 
590.500000	-0.985864 
591.000000	-0.927554 
591.500000	-0.818869 
592.000000	-0.683670 
592.500000	-0.517334 
593.000000	-0.317615 
593.500000	-0.121110 
594.000000	-0.026249 
594.500000	-0.061952 
595.000000	-0.163481 
595.500000	-0.256492 
596.000000	-0.355582 
596.500000	-0.453072 
597.000000	-0.569989 
597.500000	-0.663192 
598.000000	-0.686693 
598.500000	-0.749603 
599.000000	-0.904166 
599.500000	-1.088744 
600.000000	-1.227106 
600.500000	-1.308687 
601.000000	-1.252432 
601.500000	-1.116526 
602.000000	-0.937208 
602.500000	-0.662783 
603.000000	-0.427094 
603.500000	-0.264425 
604.000000	-0.224895 
604.500000	-0.256189 
605.000000	-0.391834 
605.500000	-0.509943 
606.000000	-0.592031 
606.500000	-0.646939 
607.000000	-0.575388 
607.500000	-0.507367 
608.000000	-0.414680 
608.500000	-0.394338 
609.000000	-0.373746 
609.500000	-0.408855 
610.000000	-0.470043 
610.500000	-0.531899 
611.000000	-0.598328 
611.500000	-0.516200 
612.000000	-0.431687 
612.500000	-0.378578 
613.000000	-0.423917 
613.500000	-0.469662 
614.000000	-0.502822 
614.500000	-0.529188 
615.000000	-0.590448 
615.500000	-0.653339 
616.000000	-0.564123 
616.500000	-0.338622 
617.000000	-0.064993 
617.500000	0.309199  
618.000000	0.899850  
618.500000	1.699820  
619.000000	2.799221  
619.500000	4.171580  
620.000000	5.798338  
620.500000	7.713146  
621.000000	9.868325  
621.500000	12.026686 
622.000000	14.209250 
622.500000	16.434472 
623.000000	18.506996 
623.500000	20.506991 
624.000000	22.376639 
624.500000	24.230154 
625.000000	26.152733 
625.500000	28.090005 
626.000000	29.879244 
626.500000	31.525188 
627.000000	33.099256 
627.500000	34.272092 
628.000000	34.950600 
628.500000	34.912434 
629.000000	34.237367 
629.500000	33.129560 
630.000000	31.602586 
630.500000	29.728679 
631.000000	27.692574 
631.500000	25.743882 
632.000000	23.859532 
632.500000	22.076068 
633.000000	20.093804 
633.500000	17.890338 
634.000000	15.516851 
634.500000	12.953083 
635.000000	10.266199 
635.500000	7.614493  
636.000000	5.211072  
636.500000	3.218039  
637.000000	1.806177  
637.500000	0.867417  
638.000000	0.311014  
638.500000	0.087586  
639.000000	0.107362  
639.500000	0.190934  
640.000000	0.262993  
640.500000	0.293353  
641.000000	0.274533  
641.500000	0.250240  
642.000000	0.206836  
642.500000	0.095996  
643.000000	-0.029173 
643.500000	-0.112374 
644.000000	-0.197868 
644.500000	-0.296211 
645.000000	-0.344070 
645.500000	-0.300857 
646.000000	-0.263126 
646.500000	-0.149336 
647.000000	-0.029427 
647.500000	0.120996  
648.000000	0.381519  
648.500000	0.687504  
649.000000	0.969649  
649.500000	1.197452  
650.000000	1.388782  
650.500000	1.427652  
651.000000	1.398702  
651.500000	1.281263  
652.000000	1.061543  
652.500000	0.815893  
653.000000	0.577096  
653.500000	0.461290  
654.000000	0.414113  
654.500000	0.500802  
655.000000	0.620186  
655.500000	0.848941  
656.000000	1.188336  
656.500000	1.483936  
657.000000	1.742655  
657.500000	1.974680  
658.000000	2.166359  
658.500000	2.253185  
659.000000	2.332652  
659.500000	2.382097  
660.000000	2.421438  
660.500000	2.514560  
661.000000	2.616115  
661.500000	2.754644  
662.000000	2.991179  
662.500000	3.237748  
663.000000	3.376750  
663.500000	3.523228  
664.000000	3.667751  
664.500000	3.844141  
665.000000	3.992956  
665.500000	4.001334  
666.000000	3.966779  
666.500000	4.050027  
667.000000	4.235235  
667.500000	4.355040  
668.000000	4.554854  
668.500000	4.862300  
669.000000	5.329941  
669.500000	5.779154  
670.000000	6.101669  
670.500000	6.377851  
671.000000	6.688672  
671.500000	7.079555  
672.000000	7.372162  
672.500000	7.685003  
673.000000	8.049140  
673.500000	8.541083  
674.000000	9.038127  
674.500000	9.476902  
675.000000	9.847462  
675.500000	10.238850 
676.000000	10.681657 
676.500000	11.014048 
677.000000	11.312756 
677.500000	11.601325 
678.000000	11.870720 
678.500000	12.112789 
679.000000	12.285844 
679.500000	12.446771 
680.000000	12.684017 
680.500000	13.021438 
681.000000	13.299197 
681.500000	13.577655 
682.000000	13.820068 
682.500000	13.971490 
683.000000	14.181095 
683.500000	14.312483 
684.000000	14.417275 
684.500000	14.649788 
685.000000	15.154341 
685.500000	15.691398 
686.000000	16.336386 
686.500000	16.977275 
687.000000	17.468576 
687.500000	18.000720 
688.000000	18.354372 
688.500000	18.499283 
689.000000	18.528778 
689.500000	18.635548 
690.000000	18.684352 
690.500000	18.831891 
691.000000	19.041170 
691.500000	19.120234 
692.000000	19.220587 
692.500000	19.309236 
693.000000	19.327280 
693.500000	19.316686 
694.000000	19.354176 
694.500000	19.441196 
695.000000	19.699255 
695.500000	20.190378 
696.000000	20.774114 
696.500000	21.385583 
697.000000	21.881495 
697.500000	22.239971 
698.000000	22.420572 
698.500000	22.430118 
699.000000	22.312831 
699.500000	22.151464 
700.000000	22.113570 
700.500000	22.210246 
701.000000	22.408646 
701.500000	22.671603 
702.000000	22.970559 
702.500000	23.308389 
703.000000	23.550291 
703.500000	23.677373 
704.000000	23.683912 
704.500000	23.660899 
705.000000	23.609851 
705.500000	23.446686 
706.000000	23.195680 
706.500000	22.887222 
707.000000	22.702289 
707.500000	22.632919 
708.000000	22.610409 
708.500000	22.660101 
709.000000	22.886766 
709.500000	23.244103 
710.000000	23.542225 
710.500000	23.775672 
711.000000	23.795827 
711.500000	23.745057 
712.000000	23.634954 
712.500000	23.472485 
713.000000	23.327988 
713.500000	23.252505 
714.000000	23.293608 
714.500000	23.442932 
715.000000	23.722269 
715.500000	23.982796 
716.000000	24.238231 
716.500000	24.446809 
717.000000	24.577012 
717.500000	24.637210 
718.000000	24.583006 
718.500000	24.437338 
719.000000	24.261320 
719.500000	24.147840 
720.000000	24.052718 
720.500000	24.017995 
721.000000	24.009518 
721.500000	24.034023 
722.000000	24.086202 
722.500000	24.064063 
723.000000	23.933684 
723.500000	23.770861 
724.000000	23.699304 
724.500000	23.673622 
725.000000	23.658818 
725.500000	23.683072 
726.000000	23.741893 
726.500000	23.900194 
727.000000	24.055593 
727.500000	24.069698 
728.000000	23.987800 
728.500000	23.918424 
729.000000	23.849413 
729.500000	23.730487 
730.000000	23.598623 
730.500000	23.411766 
731.000000	23.312653 
731.500000	23.297701 
732.000000	23.252041 
732.500000	23.212515 
733.000000	23.236601 
733.500000	23.266143 
734.000000	23.278265 
734.500000	23.352435 
735.000000	23.380760 
735.500000	23.372703 
736.000000	23.378705 
736.500000	23.355167 
737.000000	23.317527 
737.500000	23.296989 
738.000000	23.181451 
738.500000	22.961323 
739.000000	22.791161 
739.500000	22.697023 
740.000000	22.581984 
740.500000	22.568583 
741.000000	22.645402 
741.500000	22.763874 
742.000000	22.931104 
742.500000	23.007681 
743.000000	22.928194 
743.500000	22.770341 
744.000000	22.568413 
744.500000	22.240286 
745.000000	21.925635 
745.500000	21.693153 
746.000000	21.505109 
746.500000	21.439089 
747.000000	21.435830 
747.500000	21.509896 
748.000000	21.620987 
748.500000	21.676779 
749.000000	21.621412 
749.500000	21.515437 
750.000000	21.376972 
750.500000	21.107431 
751.000000	20.784731 
751.500000	20.394061 
752.000000	20.081063 
752.500000	19.922357 
753.000000	19.798777 
753.500000	19.755789 
754.000000	19.795600 
754.500000	19.894675 
755.000000	19.888231 
755.500000	19.813828 
756.000000	19.657403 
756.500000	19.483425 
757.000000	19.368581 
757.500000	19.252700 
758.000000	19.183410 
758.500000	19.168272 
759.000000	19.126350 
759.500000	18.957696 
760.000000	18.742761 
760.500000	18.497052 
761.000000	18.243885 
761.500000	17.947051 
762.000000	17.740965 
762.500000	17.713732 
763.000000	17.795862 
763.500000	17.850561 
764.000000	17.745464 
764.500000	17.523719 
765.000000	17.214642 
765.500000	16.963162 
766.000000	16.652206 
766.500000	16.437937 
767.000000	16.364624 
767.500000	16.387678 
768.000000	16.487627 
768.500000	16.551134 
769.000000	16.441537 
769.500000	16.130563 
770.000000	15.820400 
770.500000	15.477932 
771.000000	15.201159 
771.500000	14.988421 
772.000000	14.802534 
772.500000	14.714740 
773.000000	14.719860 
773.500000	14.615745 
774.000000	14.294180 
774.500000	13.839338 
775.000000	13.339859 
775.500000	12.919546 
776.000000	12.532343 
776.500000	12.156965 
777.000000	11.868311 
777.500000	11.707744 
778.000000	11.620988 
778.500000	11.695931 
779.000000	11.792684 
779.500000	11.907715 
780.000000	11.996039 
780.500000	12.096121 
781.000000	12.133375 
781.500000	12.054638 
782.000000	11.822622 
782.500000	11.478536 
783.000000	11.174002 
783.500000	10.821775 
784.000000	10.492624 
784.500000	10.146420 
785.000000	9.893565  
785.500000	9.746674  
786.000000	9.654031  
786.500000	9.626141  
787.000000	9.626843  
787.500000	9.657116  
788.000000	9.632104  
788.500000	9.657656  
789.000000	9.559354  
789.500000	9.359819  
790.000000	9.123681  
790.500000	8.840493  
791.000000	8.642249  
791.500000	8.546710  
792.000000	8.415073  
792.500000	8.280250  
793.000000	8.243465  
793.500000	8.213842  
794.000000	8.115992  
794.500000	7.953956  
795.000000	7.797653  
795.500000	7.737102  
796.000000	7.740903  
796.500000	7.647343  
797.000000	7.479580  
797.500000	7.346841  
798.000000	7.207376  
798.500000	7.085148  
799.000000	6.997790  
799.500000	6.963125  
800.000000	7.012544  
800.500000	7.179774  
801.000000	7.313617  
801.500000	7.370973  
802.000000	7.398452  
802.500000	7.329603  
803.000000	7.119609  
803.500000	6.829929  
804.000000	6.543588  
804.500000	6.302486  
805.000000	6.184235  
805.500000	6.213957  
806.000000	6.270434  
806.500000	6.426687  
807.000000	6.642476  
807.500000	6.785659  
808.000000	6.832157  
808.500000	6.800924  
809.000000	6.674313  
809.500000	6.420457  
810.000000	6.226538  
810.500000	6.025298  
811.000000	5.838467  
811.500000	5.718944  
812.000000	5.672773  
812.500000	5.640877  
813.000000	5.557537  
813.500000	5.494673  
814.000000	5.312208  
814.500000	5.165608  
815.000000	5.090372  
815.500000	5.044901  
816.000000	4.894025  
816.500000	4.730543  
817.000000	4.637391  
817.500000	4.523031  
818.000000	4.438937  
818.500000	4.289641  
819.000000	4.092425  
819.500000	3.831541  
820.000000	3.652299  
820.500000	3.472641  
821.000000	3.318428  
821.500000	3.294317  
822.000000	3.277859  
822.500000	3.282011  
823.000000	3.274133  
823.500000	3.233921  
824.000000	3.001110  
824.500000	2.755848  
825.000000	2.588292  
825.500000	2.511603  
826.000000	2.567031  
826.500000	2.705531  
827.000000	2.823447  
827.500000	2.907027  
828.000000	3.023595  
828.500000	2.998781  
829.000000	2.778601  
829.500000	2.562487  
830.000000	2.403888  
830.500000	2.374846  
831.000000	2.450309  
831.500000	2.506629  
832.000000	2.530255  
832.500000	2.550613  
833.000000	2.632892  
833.500000	2.579421  
834.000000	2.457611  
834.500000	2.300127  
835.000000	2.207060  
835.500000	2.186584  
836.000000	2.060290  
836.500000	1.842237  
837.000000	1.589472  
837.500000	1.492132  
838.000000	1.457024  
838.500000	1.509354  
839.000000	1.621020  
839.500000	1.817417  
840.000000	2.087274  
840.500000	2.238151  
841.000000	2.267612  
841.500000	2.181823  
842.000000	2.058922  
842.500000	1.955142  
843.000000	1.855388  
843.500000	1.722572  
844.000000	1.621722  
844.500000	1.597254  
845.000000	1.527905  
845.500000	1.362442  
846.000000	1.169424  
846.500000	0.963048  
847.000000	0.764883  
847.500000	0.645112  
848.000000	0.585964  
848.500000	0.553735  
849.000000	0.608084  
849.500000	0.731135  
850.000000	0.808251  
850.500000	0.855097  
851.000000	0.869208  
851.500000	0.820139  
852.000000	0.817435  
852.500000	0.821813  
853.000000	0.789411  
853.500000	0.715617  
854.000000	0.673930  
854.500000	0.641703  
855.000000	0.606175  
855.500000	0.566593  
856.000000	0.470615  
856.500000	0.430637  
857.000000	0.433572  
857.500000	0.472040  
858.000000	0.515201  
858.500000	0.541392  
859.000000	0.565564  
859.500000	0.585175  
860.000000	0.535956  
860.500000	0.438440  
861.000000	0.345012  
861.500000	0.223226  
862.000000	0.141277  
862.500000	0.086332  
863.000000	0.036579  
863.500000	0.036902  
864.000000	0.079574  
864.500000	0.144965  
865.000000	0.252320  
865.500000	0.375085  
866.000000	0.465586  
866.500000	0.475000  
867.000000	0.397392  
867.500000	0.269193  
868.000000	0.113499  
868.500000	-0.042156 
869.000000	-0.178122 
869.500000	-0.280692 
870.000000	-0.316650 
870.500000	-0.296233 
871.000000	-0.246021 
871.500000	-0.223574 
872.000000	-0.209120 
872.500000	-0.187333 
873.000000	-0.141267 
873.500000	-0.057483 
874.000000	0.002275  
874.500000	0.082451  
875.000000	0.130886  
875.500000	0.134550  
876.000000	0.070541  
876.500000	-0.028420 
877.000000	-0.125157 
877.500000	-0.206370 
878.000000	-0.210810 
878.500000	-0.221965 
879.000000	-0.230580 
879.500000	-0.292683 
880.000000	-0.367219 
880.500000	-0.468199 
881.000000	-0.564922 
881.500000	-0.614481 
882.000000	-0.647870 
882.500000	-0.576228 
883.000000	-0.456095 
883.500000	-0.341096 
884.000000	-0.218346 
884.500000	-0.111640 
885.000000	-0.021009 
885.500000	0.009676  
886.000000	0.025889  
886.500000	-0.049760 
887.000000	-0.091048 
887.500000	-0.134109 
888.000000	-0.228073 
888.500000	-0.301931 
889.000000	-0.355796 
889.500000	-0.363973 
890.000000	-0.394370 
890.500000	-0.407350 
891.000000	-0.474145 
891.500000	-0.482054 
892.000000	-0.490448 
892.500000	-0.521200 
893.000000	-0.545034 
893.500000	-0.525346 
894.000000	-0.436836 
894.500000	-0.342175 

