PE FL                   SPECTRUM    ASCII       PEDS        1.60        
  -1
PMPPP_~1
23/10/12
10:33:21.00
23/10/12
10:39:10.00


900.000000
1









LS55
316.00
5.00
5.00
SCAN
1
20
100
500
0
100
0
1
0
1
7
ON
435 365 
1 0 0
#HDR
-1
-1
#GR
NM

0.00002384185791015625
0.0
330.000000
0.500000
1141
8
154.398098
-0.885378
#DATA
330.000000	0.565000   
330.500000	0.777869   
331.000000	0.935425   
331.500000	0.934068   
332.000000	0.890481   
332.500000	0.860622   
333.000000	0.860488   
333.500000	0.781992   
334.000000	0.721350   
334.500000	0.669660   
335.000000	0.632464   
335.500000	0.717342   
336.000000	0.775998   
336.500000	0.752284   
337.000000	0.725097   
337.500000	0.778863   
338.000000	0.856827   
338.500000	0.919262   
339.000000	0.926860   
339.500000	0.880544   
340.000000	0.951639   
340.500000	1.070481   
341.000000	1.245836   
341.500000	1.489737   
342.000000	1.840577   
342.500000	2.391324   
343.000000	3.063810   
343.500000	3.754568   
344.000000	4.315693   
344.500000	4.820718   
345.000000	5.161479   
345.500000	5.377735   
346.000000	5.488629   
346.500000	5.451213   
347.000000	5.480244   
347.500000	5.529023   
348.000000	5.543829   
348.500000	5.547359   
349.000000	5.574325   
349.500000	5.516397   
350.000000	5.398824   
350.500000	5.184358   
351.000000	4.832440   
351.500000	4.417354   
352.000000	4.028205   
352.500000	3.608046   
353.000000	3.278555   
353.500000	2.997858   
354.000000	2.738891   
354.500000	2.518668   
355.000000	2.369631   
355.500000	2.285584   
356.000000	2.160466   
356.500000	2.049337   
357.000000	1.854145   
357.500000	1.764065   
358.000000	1.735419   
358.500000	1.712112   
359.000000	1.736673   
359.500000	1.857942   
360.000000	2.057989   
360.500000	2.251236   
361.000000	2.379569   
361.500000	2.314604   
362.000000	2.244262   
362.500000	2.104615   
363.000000	1.899153   
363.500000	1.727041   
364.000000	1.600056   
364.500000	1.480527   
365.000000	1.463983   
365.500000	1.521490   
366.000000	1.587435   
366.500000	1.671457   
367.000000	1.754839   
367.500000	1.811670   
368.000000	1.852913   
368.500000	1.819280   
369.000000	1.748680   
369.500000	1.688966   
370.000000	1.628989   
370.500000	1.615197   
371.000000	1.555465   
371.500000	1.573979   
372.000000	1.717600   
372.500000	1.951521   
373.000000	2.110824   
373.500000	2.231660   
374.000000	2.309777   
374.500000	2.277724   
375.000000	2.301686   
375.500000	2.158165   
376.000000	1.884264   
376.500000	1.653590   
377.000000	1.489012   
377.500000	1.322726   
378.000000	1.172062   
378.500000	1.053545   
379.000000	0.914322   
379.500000	0.986911   
380.000000	1.152253   
380.500000	1.270405   
381.000000	1.401003   
381.500000	1.643552   
382.000000	1.917659   
382.500000	2.171727   
383.000000	2.325581   
383.500000	2.252438   
384.000000	2.106246   
384.500000	1.934680   
385.000000	1.642094   
385.500000	1.276969   
386.000000	1.015886   
386.500000	0.864291   
387.000000	0.897679   
387.500000	1.099221   
388.000000	1.338717   
388.500000	1.608814   
389.000000	1.871176   
389.500000	2.014578   
390.000000	1.964444   
390.500000	1.793627   
391.000000	1.523183   
391.500000	1.287572   
392.000000	1.121567   
392.500000	1.035469   
393.000000	1.023660   
393.500000	1.084826   
394.000000	1.145615   
394.500000	1.172975   
395.000000	1.104542   
395.500000	0.909990   
396.000000	0.662516   
396.500000	0.390547   
397.000000	0.175640   
397.500000	0.038565   
398.000000	0.030329   
398.500000	0.152102   
399.000000	0.311135   
399.500000	0.530797   
400.000000	0.721200   
400.500000	0.862674   
401.000000	0.944549   
401.500000	0.950234   
402.000000	0.855361   
402.500000	0.786328   
403.000000	0.822945   
403.500000	0.764759   
404.000000	0.760592   
404.500000	0.761235   
405.000000	0.807419   
405.500000	0.905198   
406.000000	1.040978   
406.500000	1.115588   
407.000000	1.253393   
407.500000	1.534910   
408.000000	1.677033   
408.500000	1.747326   
409.000000	1.663464   
409.500000	1.530845   
410.000000	1.349816   
410.500000	1.157982   
411.000000	0.931139   
411.500000	0.844705   
412.000000	0.961894   
412.500000	1.107396   
413.000000	1.355006   
413.500000	1.582458   
414.000000	1.804039   
414.500000	1.914967   
415.000000	1.938715   
415.500000	1.798095   
416.000000	1.596322   
416.500000	1.400500   
417.000000	1.129591   
417.500000	0.852163   
418.000000	0.607885   
418.500000	0.444527   
419.000000	0.397155   
419.500000	0.480676   
420.000000	0.616757   
420.500000	0.785032   
421.000000	0.990070   
421.500000	1.126354   
422.000000	1.161681   
422.500000	1.116591   
423.000000	1.060545   
423.500000	1.045028   
424.000000	1.105797   
424.500000	1.218658   
425.000000	1.377021   
425.500000	1.557425   
426.000000	1.733686   
426.500000	1.840307   
427.000000	1.858203   
427.500000	1.857098   
428.000000	1.807583   
428.500000	1.759728   
429.000000	1.705545   
429.500000	1.718075   
430.000000	1.761550   
430.500000	1.791215   
431.000000	1.755231   
431.500000	1.668547   
432.000000	1.598827   
432.500000	1.458898   
433.000000	1.343977   
433.500000	1.285026   
434.000000	1.336956   
434.500000	1.508569   
435.000000	1.720811   
435.500000	1.882606   
436.000000	2.052635   
436.500000	2.216520   
437.000000	2.178837   
437.500000	1.986378   
438.000000	1.697513   
438.500000	1.324430   
439.000000	0.970449   
439.500000	0.683478   
440.000000	0.423226   
440.500000	0.329989   
441.000000	0.406540   
441.500000	0.505369   
442.000000	0.611175   
442.500000	0.757423   
443.000000	0.836799   
443.500000	0.904873   
444.000000	0.933871   
444.500000	0.854712   
445.000000	0.903324   
445.500000	1.018722   
446.000000	1.133875   
446.500000	1.246226   
447.000000	1.356952   
447.500000	1.348073   
448.000000	1.274001   
448.500000	1.119885   
449.000000	0.847905   
449.500000	0.763119   
450.000000	0.793308   
450.500000	0.918521   
451.000000	1.150406   
451.500000	1.433617   
452.000000	1.526683   
452.500000	1.538243   
453.000000	1.475406   
453.500000	1.249469   
454.000000	1.076117   
454.500000	0.932272   
455.000000	0.839848   
455.500000	0.927444   
456.000000	1.149163   
456.500000	1.245550   
457.000000	1.223466   
457.500000	1.204201   
458.000000	1.131025   
458.500000	1.028941   
459.000000	0.946969   
459.500000	0.872355   
460.000000	0.921595   
460.500000	1.020858   
461.000000	1.067136   
461.500000	1.063175   
462.000000	1.156541   
462.500000	1.270839   
463.000000	1.329878   
463.500000	1.365369   
464.000000	1.413433   
464.500000	1.490523   
465.000000	1.488276   
465.500000	1.457577   
466.000000	1.390242   
466.500000	1.408486   
467.000000	1.450895   
467.500000	1.428182   
468.000000	1.343809   
468.500000	1.325861   
469.000000	1.276440   
469.500000	1.090177   
470.000000	0.818390   
470.500000	0.568745   
471.000000	0.414042   
471.500000	0.373134   
472.000000	0.406339   
472.500000	0.452597   
473.000000	0.665319   
473.500000	0.884661   
474.000000	1.032134   
474.500000	1.087587   
475.000000	1.135697   
475.500000	1.109886   
476.000000	1.108204   
476.500000	1.126845   
477.000000	1.047883   
477.500000	1.039470   
478.000000	1.056604   
478.500000	1.065841   
479.000000	0.977197   
479.500000	0.879830   
480.000000	0.729769   
480.500000	0.629025   
481.000000	0.604474   
481.500000	0.581896   
482.000000	0.611329   
482.500000	0.660965   
483.000000	0.724052   
483.500000	0.773252   
484.000000	0.810318   
484.500000	0.759787   
485.000000	0.659446   
485.500000	0.585578   
486.000000	0.526552   
486.500000	0.504897   
487.000000	0.555716   
487.500000	0.648722   
488.000000	0.772235   
488.500000	0.922402   
489.000000	1.010426   
489.500000	0.980712   
490.000000	0.860255   
490.500000	0.666774   
491.000000	0.432751   
491.500000	0.233007   
492.000000	0.083903   
492.500000	-0.040511  
493.000000	-0.060268  
493.500000	-0.030108  
494.000000	-0.016369  
494.500000	0.025432   
495.000000	0.045056   
495.500000	0.028876   
496.000000	0.032386   
496.500000	0.133564   
497.000000	0.219820   
497.500000	0.352354   
498.000000	0.463533   
498.500000	0.521859   
499.000000	0.545005   
499.500000	0.515949   
500.000000	0.419938   
500.500000	0.272944   
501.000000	0.191890   
501.500000	0.103657   
502.000000	0.085584   
502.500000	0.092956   
503.000000	0.076187   
503.500000	0.092728   
504.000000	0.156168   
504.500000	0.230052   
505.000000	0.282254   
505.500000	0.323801   
506.000000	0.279815   
506.500000	0.263278   
507.000000	0.257752   
507.500000	0.177590   
508.000000	0.122240   
508.500000	0.095720   
509.000000	0.121963   
509.500000	0.185125   
510.000000	0.238422   
510.500000	0.181286   
511.000000	0.129491   
511.500000	0.067039   
512.000000	-0.093382  
512.500000	-0.249394  
513.000000	-0.333472  
513.500000	-0.308740  
514.000000	-0.147527  
514.500000	0.067481   
515.000000	0.227856   
515.500000	0.411671   
516.000000	0.565607   
516.500000	0.592595   
517.000000	0.484541   
517.500000	0.356203   
518.000000	0.241647   
518.500000	0.197775   
519.000000	0.171592   
519.500000	0.150327   
520.000000	0.169917   
520.500000	0.200317   
521.000000	0.185157   
521.500000	0.040564   
522.000000	-0.166079  
522.500000	-0.312244  
523.000000	-0.362737  
523.500000	-0.338435  
524.000000	-0.231536  
524.500000	-0.083628  
525.000000	0.118381   
525.500000	0.344337   
526.000000	0.517620   
526.500000	0.559826   
527.000000	0.557283   
527.500000	0.494711   
528.000000	0.430863   
528.500000	0.392864   
529.000000	0.324118   
529.500000	0.248162   
530.000000	0.219192   
530.500000	0.263662   
531.000000	0.253469   
531.500000	0.247452   
532.000000	0.226199   
532.500000	0.190279   
533.000000	0.150550   
533.500000	0.056587   
534.000000	-0.096741  
534.500000	-0.253011  
535.000000	-0.369163  
535.500000	-0.456381  
536.000000	-0.488146  
536.500000	-0.461225  
537.000000	-0.387092  
537.500000	-0.277933  
538.000000	-0.158150  
538.500000	-0.043111  
539.000000	0.029883   
539.500000	0.093700   
540.000000	0.163069   
540.500000	0.254724   
541.000000	0.359351   
541.500000	0.444773   
542.000000	0.496244   
542.500000	0.482072   
543.000000	0.437183   
543.500000	0.302905   
544.000000	0.082537   
544.500000	-0.126317  
545.000000	-0.272502  
545.500000	-0.351707  
546.000000	-0.368537  
546.500000	-0.295064  
547.000000	-0.166877  
547.500000	0.022580   
548.000000	0.189734   
548.500000	0.281839   
549.000000	0.329591   
549.500000	0.355316   
550.000000	0.333827   
550.500000	0.246011   
551.000000	0.188656   
551.500000	0.131705   
552.000000	0.081533   
552.500000	0.033852   
553.000000	-0.011377  
553.500000	-0.059425  
554.000000	-0.094925  
554.500000	-0.148627  
555.000000	-0.248668  
555.500000	-0.323333  
556.000000	-0.340359  
556.500000	-0.344649  
557.000000	-0.321849  
557.500000	-0.268963  
558.000000	-0.220832  
558.500000	-0.135210  
559.000000	-0.055593  
559.500000	-0.077903  
560.000000	-0.151898  
560.500000	-0.223870  
561.000000	-0.324765  
561.500000	-0.395162  
562.000000	-0.455465  
562.500000	-0.519593  
563.000000	-0.498362  
563.500000	-0.401233  
564.000000	-0.293378  
564.500000	-0.225222  
565.000000	-0.169393  
565.500000	-0.222279  
566.000000	-0.288440  
566.500000	-0.393388  
567.000000	-0.580985  
567.500000	-0.736319  
568.000000	-0.807559  
568.500000	-0.775342  
569.000000	-0.643501  
569.500000	-0.451570  
570.000000	-0.310398  
570.500000	-0.186311  
571.000000	-0.062441  
571.500000	-0.016269  
572.000000	-0.067143  
572.500000	-0.184468  
573.000000	-0.302109  
573.500000	-0.350339  
574.000000	-0.299390  
574.500000	-0.219090  
575.000000	-0.186081  
575.500000	-0.130879  
576.000000	-0.083016  
576.500000	-0.105988  
577.000000	-0.181676  
577.500000	-0.307522  
578.000000	-0.430593  
578.500000	-0.471501  
579.000000	-0.404610  
579.500000	-0.323267  
580.000000	-0.186947  
580.500000	-0.033093  
581.000000	0.087113   
581.500000	0.168079   
582.000000	0.183506   
582.500000	0.125937   
583.000000	0.031208   
583.500000	-0.029256  
584.000000	-0.082873  
584.500000	-0.069321  
585.000000	-0.060246  
585.500000	-0.059926  
586.000000	-0.009254  
586.500000	0.048544   
587.000000	0.114947   
587.500000	0.148012   
588.000000	0.154203   
588.500000	0.099109   
589.000000	0.053703   
589.500000	-0.042822  
590.000000	-0.151384  
590.500000	-0.232477  
591.000000	-0.284602  
591.500000	-0.311074  
592.000000	-0.310371  
592.500000	-0.252708  
593.000000	-0.172525  
593.500000	-0.091503  
594.000000	-0.073036  
594.500000	-0.086228  
595.000000	-0.134630  
595.500000	-0.153423  
596.000000	-0.199354  
596.500000	-0.238470  
597.000000	-0.233610  
597.500000	-0.164954  
598.000000	-0.070399  
598.500000	-0.020884  
599.000000	0.004211   
599.500000	-0.041071  
600.000000	-0.036250  
600.500000	-0.023799  
601.000000	-0.014049  
601.500000	-0.014209  
602.000000	0.029801   
602.500000	0.121624   
603.000000	0.185477   
603.500000	0.181499   
604.000000	0.084772   
604.500000	-0.026517  
605.000000	-0.114749  
605.500000	-0.202591  
606.000000	-0.262051  
606.500000	-0.285771  
607.000000	-0.244922  
607.500000	-0.186909  
608.000000	-0.171948  
608.500000	-0.183777  
609.000000	-0.195852  
609.500000	-0.164782  
610.000000	-0.176635  
610.500000	-0.174677  
611.000000	-0.132915  
611.500000	-0.001181  
612.000000	0.158117   
612.500000	0.306400   
613.000000	0.433246   
613.500000	0.502352   
614.000000	0.592244   
614.500000	0.656333   
615.000000	0.802782   
615.500000	1.096390   
616.000000	1.685875   
616.500000	2.684108   
617.000000	4.084821   
617.500000	5.843602   
618.000000	7.980413   
618.500000	10.544006  
619.000000	13.689101  
619.500000	17.462340  
620.000000	22.069422  
620.500000	27.516671  
621.000000	34.111442  
621.500000	42.088024  
622.000000	51.243068  
622.500000	61.585523  
623.000000	72.793005  
623.500000	84.782777  
624.000000	97.032890  
624.500000	109.199724 
625.000000	120.689713 
625.500000	130.957862 
626.000000	139.806397 
626.500000	146.633494 
627.000000	151.458384 
627.500000	153.998802 
628.000000	154.398098 
628.500000	152.464500 
629.000000	148.289876 
629.500000	142.356048 
630.000000	134.567662 
630.500000	125.262608 
631.000000	114.426774 
631.500000	102.645190 
632.000000	90.284166  
632.500000	77.943115  
633.000000	65.981208  
633.500000	54.483088  
634.000000	44.267365  
634.500000	35.470308  
635.000000	28.222178  
635.500000	22.234608  
636.000000	17.459831  
636.500000	13.599809  
637.000000	10.546173  
637.500000	8.122225   
638.000000	5.970349   
638.500000	4.155558   
639.000000	2.697154   
639.500000	1.694859   
640.000000	1.034996   
640.500000	0.726128   
641.000000	0.591526   
641.500000	0.589082   
642.000000	0.675859   
642.500000	0.728359   
643.000000	0.757474   
643.500000	0.716227   
644.000000	0.694662   
644.500000	0.652999   
645.000000	0.592899   
645.500000	0.465408   
646.000000	0.357881   
646.500000	0.340692   
647.000000	0.312728   
647.500000	0.307419   
648.000000	0.263517   
648.500000	0.236600   
649.000000	0.212902   
649.500000	0.179759   
650.000000	0.059830   
650.500000	-0.105900  
651.000000	-0.183213  
651.500000	-0.172436  
652.000000	-0.055442  
652.500000	0.097164   
653.000000	0.284554   
653.500000	0.471387   
654.000000	0.685201   
654.500000	0.836753   
655.000000	0.841800   
655.500000	0.728984   
656.000000	0.563865   
656.500000	0.451118   
657.000000	0.373584   
657.500000	0.323155   
658.000000	0.276334   
658.500000	0.281867   
659.000000	0.335625   
659.500000	0.373314   
660.000000	0.355086   
660.500000	0.238513   
661.000000	0.162734   
661.500000	0.104996   
662.000000	0.099073   
662.500000	0.129199   
663.000000	0.211772   
663.500000	0.354608   
664.000000	0.472917   
664.500000	0.572683   
665.000000	0.555631   
665.500000	0.484882   
666.000000	0.345109   
666.500000	0.213403   
667.000000	0.109646   
667.500000	0.059895   
668.000000	0.064605   
668.500000	0.081097   
669.000000	0.158050   
669.500000	0.267414   
670.000000	0.352063   
670.500000	0.356073   
671.000000	0.323935   
671.500000	0.312896   
672.000000	0.299007   
672.500000	0.282870   
673.000000	0.229379   
673.500000	0.210086   
674.000000	0.244358   
674.500000	0.274647   
675.000000	0.287146   
675.500000	0.259364   
676.000000	0.270059   
676.500000	0.264631   
677.000000	0.231520   
677.500000	0.159548   
678.000000	0.078206   
678.500000	0.013967   
679.000000	-0.048307  
679.500000	-0.106926  
680.000000	-0.190133  
680.500000	-0.230394  
681.000000	-0.256746  
681.500000	-0.262368  
682.000000	-0.257452  
682.500000	-0.226751  
683.000000	-0.163112  
683.500000	-0.079260  
684.000000	0.015044   
684.500000	0.122434   
685.000000	0.261192   
685.500000	0.399357   
686.000000	0.512472   
686.500000	0.594567   
687.000000	0.616564   
687.500000	0.634573   
688.000000	0.694739   
688.500000	0.775062   
689.000000	0.829269   
689.500000	0.879743   
690.000000	0.913194   
690.500000	0.916956   
691.000000	0.931310   
691.500000	0.887165   
692.000000	0.815964   
692.500000	0.774509   
693.000000	0.767614   
693.500000	0.755729   
694.000000	0.793062   
694.500000	0.860666   
695.000000	0.929212   
695.500000	1.028296   
696.000000	1.084662   
696.500000	1.136197   
697.000000	1.167302   
697.500000	1.176443   
698.000000	1.113651   
698.500000	0.996087   
699.000000	0.868300   
699.500000	0.719743   
700.000000	0.560359   
700.500000	0.400392   
701.000000	0.332701   
701.500000	0.338737   
702.000000	0.358457   
702.500000	0.382017   
703.000000	0.385077   
703.500000	0.378540   
704.000000	0.368973   
704.500000	0.311619   
705.000000	0.144514   
705.500000	-0.029745  
706.000000	-0.203208  
706.500000	-0.375624  
707.000000	-0.492836  
707.500000	-0.539518  
708.000000	-0.473582  
708.500000	-0.315314  
709.000000	-0.095251  
709.500000	0.090161   
710.000000	0.265793   
710.500000	0.392709   
711.000000	0.441093   
711.500000	0.414081   
712.000000	0.329915   
712.500000	0.242256   
713.000000	0.187662   
713.500000	0.147679   
714.000000	0.100954   
714.500000	0.074416   
715.000000	0.047594   
715.500000	0.066009   
716.000000	0.111459   
716.500000	0.122496   
717.000000	0.148183   
717.500000	0.226928   
718.000000	0.273615   
718.500000	0.311123   
719.000000	0.350925   
719.500000	0.401171   
720.000000	0.485021   
720.500000	0.583635   
721.000000	0.660102   
721.500000	0.719058   
722.000000	0.790219   
722.500000	0.768028   
723.000000	0.712870   
723.500000	0.617511   
724.000000	0.524456   
724.500000	0.454060   
725.000000	0.398240   
725.500000	0.346818   
726.000000	0.312495   
726.500000	0.308158   
727.000000	0.260665   
727.500000	0.198076   
728.000000	0.154277   
728.500000	0.151409   
729.000000	0.169200   
729.500000	0.175122   
730.000000	0.196890   
730.500000	0.230545   
731.000000	0.273989   
731.500000	0.258396   
732.000000	0.201798   
732.500000	0.138810   
733.000000	0.082916   
733.500000	0.021693   
734.000000	-0.053828  
734.500000	-0.112396  
735.000000	-0.135950  
735.500000	-0.158236  
736.000000	-0.182159  
736.500000	-0.226193  
737.000000	-0.264073  
737.500000	-0.287304  
738.000000	-0.284522  
738.500000	-0.283970  
739.000000	-0.272272  
739.500000	-0.206649  
740.000000	-0.138099  
740.500000	-0.064650  
741.000000	-0.004558  
741.500000	0.037228   
742.000000	0.026397   
742.500000	-0.019643  
743.000000	-0.099323  
743.500000	-0.199021  
744.000000	-0.258411  
744.500000	-0.310318  
745.000000	-0.302667  
745.500000	-0.308380  
746.000000	-0.297553  
746.500000	-0.295706  
747.000000	-0.296917  
747.500000	-0.304697  
748.000000	-0.307907  
748.500000	-0.324336  
749.000000	-0.345814  
749.500000	-0.304800  
750.000000	-0.274994  
750.500000	-0.234423  
751.000000	-0.191069  
751.500000	-0.157351  
752.000000	-0.129602  
752.500000	-0.085801  
753.000000	-0.064034  
753.500000	-0.060702  
754.000000	-0.041210  
754.500000	-0.029777  
755.000000	-0.014978  
755.500000	-0.038551  
756.000000	-0.093509  
756.500000	-0.159614  
757.000000	-0.207862  
757.500000	-0.256485  
758.000000	-0.288919  
758.500000	-0.315560  
759.000000	-0.324174  
759.500000	-0.288989  
760.000000	-0.256533  
760.500000	-0.210244  
761.000000	-0.120541  
761.500000	-0.023685  
762.000000	0.098054   
762.500000	0.215836   
763.000000	0.291467   
763.500000	0.313723   
764.000000	0.320155   
764.500000	0.261819   
765.000000	0.181925   
765.500000	0.128780   
766.000000	0.078126   
766.500000	0.109915   
767.000000	0.166447   
767.500000	0.197918   
768.000000	0.165818   
768.500000	0.100906   
769.000000	-0.021185  
769.500000	-0.204010  
770.000000	-0.423393  
770.500000	-0.671465  
771.000000	-0.817011  
771.500000	-0.870819  
772.000000	-0.845866  
772.500000	-0.807476  
773.000000	-0.745411  
773.500000	-0.650706  
774.000000	-0.561200  
774.500000	-0.509810  
775.000000	-0.474236  
775.500000	-0.403781  
776.000000	-0.287909  
776.500000	-0.142093  
777.000000	-0.002290  
777.500000	0.113785   
778.000000	0.205664   
778.500000	0.240345   
779.000000	0.199020   
779.500000	0.131249   
780.000000	0.010166   
780.500000	-0.116747  
781.000000	-0.229045  
781.500000	-0.279551  
782.000000	-0.278782  
782.500000	-0.288372  
783.000000	-0.317091  
783.500000	-0.375312  
784.000000	-0.409232  
784.500000	-0.449891  
785.000000	-0.450754  
785.500000	-0.428814  
786.000000	-0.394212  
786.500000	-0.340064  
787.000000	-0.286735  
787.500000	-0.261653  
788.000000	-0.249147  
788.500000	-0.244229  
789.000000	-0.245882  
789.500000	-0.190800  
790.000000	-0.118042  
790.500000	-0.066322  
791.000000	-0.036102  
791.500000	-0.028989  
792.000000	-0.080853  
792.500000	-0.160603  
793.000000	-0.284635  
793.500000	-0.477798  
794.000000	-0.631151  
794.500000	-0.688756  
795.000000	-0.727775  
795.500000	-0.747226  
796.000000	-0.710791  
796.500000	-0.724212  
797.000000	-0.721269  
797.500000	-0.678854  
798.000000	-0.658271  
798.500000	-0.665310  
799.000000	-0.613569  
799.500000	-0.549282  
800.000000	-0.455104  
800.500000	-0.299870  
801.000000	-0.205016  
801.500000	-0.106387  
802.000000	0.009292   
802.500000	0.125391   
803.000000	0.124621   
803.500000	0.101006   
804.000000	0.081517   
804.500000	0.066228   
805.000000	0.037999   
805.500000	-0.082125  
806.000000	-0.235811  
806.500000	-0.413318  
807.000000	-0.530026  
807.500000	-0.671690  
808.000000	-0.805807  
808.500000	-0.849226  
809.000000	-0.775522  
809.500000	-0.646369  
810.000000	-0.503712  
810.500000	-0.372580  
811.000000	-0.290331  
811.500000	-0.223155  
812.000000	-0.260773  
812.500000	-0.376804  
813.000000	-0.479884  
813.500000	-0.559315  
814.000000	-0.590929  
814.500000	-0.548774  
815.000000	-0.455136  
815.500000	-0.318407  
816.000000	-0.139922  
816.500000	-0.048256  
817.000000	-0.015710  
817.500000	0.018111   
818.000000	-0.025216  
818.500000	-0.099911  
819.000000	-0.220043  
819.500000	-0.352673  
820.000000	-0.422642  
820.500000	-0.425976  
821.000000	-0.437663  
821.500000	-0.424405  
822.000000	-0.379346  
822.500000	-0.324667  
823.000000	-0.287253  
823.500000	-0.306989  
824.000000	-0.396758  
824.500000	-0.494400  
825.000000	-0.570089  
825.500000	-0.606272  
826.000000	-0.599817  
826.500000	-0.599628  
827.000000	-0.503219  
827.500000	-0.430867  
828.000000	-0.394598  
828.500000	-0.412057  
829.000000	-0.463795  
829.500000	-0.549069  
830.000000	-0.617370  
830.500000	-0.663336  
831.000000	-0.739921  
831.500000	-0.687712  
832.000000	-0.629792  
832.500000	-0.553433  
833.000000	-0.471812  
833.500000	-0.391101  
834.000000	-0.324283  
834.500000	-0.245303  
835.000000	-0.180797  
835.500000	-0.143845  
836.000000	-0.092277  
836.500000	-0.083845  
837.000000	-0.104641  
837.500000	-0.139026  
838.000000	-0.150322  
838.500000	-0.172112  
839.000000	-0.232501  
839.500000	-0.333473  
840.000000	-0.383281  
840.500000	-0.408482  
841.000000	-0.432977  
841.500000	-0.437229  
842.000000	-0.420196  
842.500000	-0.328854  
843.000000	-0.200863  
843.500000	-0.111557  
844.000000	-0.107700  
844.500000	-0.069457  
845.000000	-0.018980  
845.500000	0.019356   
846.000000	0.054989   
846.500000	0.052254   
847.000000	0.055258   
847.500000	0.088427   
848.000000	0.100035   
848.500000	0.007822   
849.000000	-0.109602  
849.500000	-0.211254  
850.000000	-0.298711  
850.500000	-0.317233  
851.000000	-0.274781  
851.500000	-0.245846  
852.000000	-0.211319  
852.500000	-0.159440  
853.000000	-0.195842  
853.500000	-0.304914  
854.000000	-0.428300  
854.500000	-0.580574  
855.000000	-0.738346  
855.500000	-0.777570  
856.000000	-0.790027  
856.500000	-0.766106  
857.000000	-0.653164  
857.500000	-0.527598  
858.000000	-0.466136  
858.500000	-0.411589  
859.000000	-0.380120  
859.500000	-0.429443  
860.000000	-0.440740  
860.500000	-0.469006  
861.000000	-0.487397  
861.500000	-0.447908  
862.000000	-0.387764  
862.500000	-0.389156  
863.000000	-0.413546  
863.500000	-0.419963  
864.000000	-0.471656  
864.500000	-0.560835  
865.000000	-0.681701  
865.500000	-0.808231  
866.000000	-0.875797  
866.500000	-0.885378  
867.000000	-0.872936  
867.500000	-0.846436  
868.000000	-0.785585  
868.500000	-0.709836  
869.000000	-0.657077  
869.500000	-0.600348  
870.000000	-0.540987  
870.500000	-0.495836  
871.000000	-0.480046  
871.500000	-0.439493  
872.000000	-0.374833  
872.500000	-0.331940  
873.000000	-0.317530  
873.500000	-0.351268  
874.000000	-0.346868  
874.500000	-0.310416  
875.000000	-0.286496  
875.500000	-0.295417  
876.000000	-0.266465  
876.500000	-0.186618  
877.000000	-0.134034  
877.500000	-0.141301  
878.000000	-0.241634  
878.500000	-0.370204  
879.000000	-0.481120  
879.500000	-0.591371  
880.000000	-0.716798  
880.500000	-0.786069  
881.000000	-0.765971  
881.500000	-0.707878  
882.000000	-0.636674  
882.500000	-0.573227  
883.000000	-0.521519  
883.500000	-0.471663  
884.000000	-0.433246  
884.500000	-0.431803  
885.000000	-0.422304  
885.500000	-0.399839  
886.000000	-0.365748  
886.500000	-0.350112  
887.000000	-0.322674  
887.500000	-0.325778  
888.000000	-0.326747  
888.500000	-0.352815  
889.000000	-0.427104  
889.500000	-0.512536  
890.000000	-0.584004  
890.500000	-0.611722  
891.000000	-0.654486  
891.500000	-0.638164  
892.000000	-0.580031  
892.500000	-0.448404  
893.000000	-0.283522  
893.500000	-0.106052  
894.000000	0.028867   
894.500000	0.092478   
895.000000	0.136078   
895.500000	0.093759   
896.000000	-0.044444  
896.500000	-0.286008  
897.000000	-0.529049  
897.500000	-0.686447  
898.000000	-0.711387  
898.500000	-0.642394  
899.000000	-0.452631  
899.500000	-0.073405  
900.000000	0.432000   

