PE FL                   SPECTRUM    ASCII       PEDS        1.60        
  -1
PMD438~1
23/10/14
20:41:53.00
23/10/14
20:41:53.00


894.500000
1









LS55
316.00
5.00
5.00
SCAN
1
20
100
500
0
100
0
1
0
1
7
ON
900 316 
1 0 0
#HDR
-1
-1
#GR
NM

0.00002384185791015625
0.0
330.000000
0.500000
1130
8
62.677670
-1.291058
#DATA
330.000000	1.233000  
330.500000	2.876107  
331.000000	4.326281  
331.500000	5.474898  
332.000000	6.556042  
332.500000	7.514806  
333.000000	8.366182  
333.500000	9.132545  
334.000000	10.041498 
334.500000	11.047024 
335.000000	12.029339 
335.500000	12.997197 
336.000000	13.888945 
336.500000	14.774795 
337.000000	15.557563 
337.500000	16.228071 
338.000000	16.788097 
338.500000	17.435815 
339.000000	18.096675 
339.500000	18.662761 
340.000000	19.259816 
340.500000	19.968709 
341.000000	20.801245 
341.500000	21.708233 
342.000000	22.812473 
342.500000	23.995169 
343.000000	25.385970 
343.500000	26.858429 
344.000000	28.271133 
344.500000	29.711721 
345.000000	31.282527 
345.500000	32.868874 
346.000000	34.482350 
346.500000	36.226844 
347.000000	37.944781 
347.500000	39.742386 
348.000000	41.532164 
348.500000	43.183326 
349.000000	44.615816 
349.500000	45.943106 
350.000000	47.120489 
350.500000	48.117915 
351.000000	49.081280 
351.500000	49.911039 
352.000000	50.955688 
352.500000	52.222271 
353.000000	53.602967 
353.500000	54.974599 
354.000000	56.292867 
354.500000	57.557791 
355.000000	58.667490 
355.500000	59.661219 
356.000000	60.354309 
356.500000	60.886370 
357.000000	61.316405 
357.500000	61.731046 
358.000000	62.129538 
358.500000	62.426764 
359.000000	62.677670 
359.500000	62.675927 
360.000000	62.634667 
360.500000	62.529186 
361.000000	62.482872 
361.500000	62.239661 
362.000000	61.881519 
362.500000	61.629658 
363.000000	61.351947 
363.500000	61.210330 
364.000000	60.912455 
364.500000	60.469785 
365.000000	60.197178 
365.500000	60.070062 
366.000000	59.752299 
366.500000	59.264294 
367.000000	58.773322 
367.500000	58.202188 
368.000000	57.851363 
368.500000	57.568533 
369.000000	57.159784 
369.500000	56.881769 
370.000000	56.717453 
370.500000	56.563687 
371.000000	56.413246 
371.500000	56.189398 
372.000000	55.809645 
372.500000	55.401210 
373.000000	55.081775 
373.500000	54.558903 
374.000000	54.019373 
374.500000	53.253391 
375.000000	52.512754 
375.500000	51.929363 
376.000000	51.283134 
376.500000	50.552002 
377.000000	49.767394 
377.500000	49.128072 
378.000000	48.490394 
378.500000	47.823333 
379.000000	46.779822 
379.500000	45.808765 
380.000000	45.004732 
380.500000	44.290156 
381.000000	43.606317 
381.500000	42.941633 
382.000000	42.302563 
382.500000	41.683448 
383.000000	41.102105 
383.500000	40.138524 
384.000000	39.165564 
384.500000	38.286046 
385.000000	37.607818 
385.500000	37.027241 
386.000000	36.645984 
386.500000	36.351884 
387.000000	36.099514 
387.500000	35.811782 
388.000000	35.227811 
388.500000	34.501265 
389.000000	33.677898 
389.500000	32.775804 
390.000000	31.871835 
390.500000	31.057592 
391.000000	30.400057 
391.500000	29.899109 
392.000000	29.371471 
392.500000	28.859843 
393.000000	28.317153 
393.500000	27.800073 
394.000000	27.228729 
394.500000	26.650774 
395.000000	26.065495 
395.500000	25.531237 
396.000000	25.146048 
396.500000	24.764248 
397.000000	24.480783 
397.500000	24.248047 
398.000000	24.059027 
398.500000	23.805344 
399.000000	23.603385 
399.500000	23.432206 
400.000000	23.187643 
400.500000	22.920667 
401.000000	22.628336 
401.500000	22.404427 
402.000000	22.182317 
402.500000	21.806245 
403.000000	21.291760 
403.500000	20.763361 
404.000000	20.337041 
404.500000	19.896872 
405.000000	19.500903 
405.500000	19.177192 
406.000000	19.024165 
406.500000	19.045808 
407.000000	19.094070 
407.500000	19.140797 
408.000000	19.176404 
408.500000	19.158855 
409.000000	19.026436 
409.500000	18.853650 
410.000000	18.644976 
410.500000	18.413219 
411.000000	18.159676 
411.500000	17.919949 
412.000000	17.759349 
412.500000	17.656069 
413.000000	17.536231 
413.500000	17.416440 
414.000000	17.209154 
414.500000	16.954560 
415.000000	16.621692 
415.500000	16.141793 
416.000000	15.575256 
416.500000	15.035523 
417.000000	14.562479 
417.500000	14.138394 
418.000000	13.965002 
418.500000	13.891801 
419.000000	13.970305 
419.500000	14.130272 
420.000000	14.242484 
420.500000	14.263999 
421.000000	14.151768 
421.500000	13.876922 
422.000000	13.410001 
422.500000	12.934143 
423.000000	12.364926 
423.500000	11.849530 
424.000000	11.440744 
424.500000	11.114179 
425.000000	10.790959 
425.500000	10.518018 
426.000000	10.271488 
426.500000	9.911144  
427.000000	9.547403  
427.500000	9.176784  
428.000000	8.840136  
428.500000	8.635462  
429.000000	8.542136  
429.500000	8.371480  
430.000000	8.288550  
430.500000	8.292843  
431.000000	8.193125  
431.500000	7.961310  
432.000000	7.693049  
432.500000	7.373157  
433.000000	7.125452  
433.500000	6.899801  
434.000000	6.617325  
434.500000	6.484819  
435.000000	6.528197  
435.500000	6.630785  
436.000000	6.567230  
436.500000	6.537496  
437.000000	6.465243  
437.500000	6.442611  
438.000000	6.315076  
438.500000	6.134735  
439.000000	6.071103  
439.500000	6.024405  
440.000000	6.089592  
440.500000	6.056842  
441.000000	6.003682  
441.500000	5.873754  
442.000000	5.753017  
442.500000	5.482388  
443.000000	5.153273  
443.500000	4.922043  
444.000000	4.644549  
444.500000	4.448885  
445.000000	4.285253  
445.500000	4.208997  
446.000000	4.166845  
446.500000	4.170437  
447.000000	4.136492  
447.500000	4.108975  
448.000000	4.119508  
448.500000	4.042780  
449.000000	3.922687  
449.500000	3.787148  
450.000000	3.613786  
450.500000	3.373981  
451.000000	3.114971  
451.500000	2.841430  
452.000000	2.627527  
452.500000	2.428578  
453.000000	2.204022  
453.500000	2.014835  
454.000000	1.927119  
454.500000	1.878290  
455.000000	1.867429  
455.500000	1.921149  
456.000000	2.039254  
456.500000	2.235136  
457.000000	2.442946  
457.500000	2.507621  
458.000000	2.417027  
458.500000	2.354123  
459.000000	2.267812  
459.500000	2.175364  
460.000000	2.074532  
460.500000	1.993237  
461.000000	1.955536  
461.500000	2.043020  
462.000000	2.140345  
462.500000	2.122389  
463.000000	2.108440  
463.500000	2.010834  
464.000000	1.919034  
464.500000	1.818429  
465.000000	1.718234  
465.500000	1.578654  
466.000000	1.489133  
466.500000	1.418586  
467.000000	1.280602  
467.500000	1.150232  
468.000000	1.003758  
468.500000	0.922655  
469.000000	0.881462  
469.500000	0.909762  
470.000000	0.966587  
470.500000	1.054310  
471.000000	1.106628  
471.500000	1.157268  
472.000000	1.214006  
472.500000	1.249844  
473.000000	1.284113  
473.500000	1.317843  
474.000000	1.337973  
474.500000	1.379620  
475.000000	1.429580  
475.500000	1.356625  
476.000000	1.253779  
476.500000	1.107392  
477.000000	0.938378  
477.500000	0.761486  
478.000000	0.626365  
478.500000	0.527003  
479.000000	0.543483  
479.500000	0.667258  
480.000000	0.747517  
480.500000	0.844031  
481.000000	0.992946  
481.500000	1.108057  
482.000000	1.228144  
482.500000	1.298484  
483.000000	1.313419  
483.500000	1.306628  
484.000000	1.308177  
484.500000	1.293641  
485.000000	1.221309  
485.500000	1.182588  
486.000000	1.095709  
486.500000	1.019416  
487.000000	0.877157  
487.500000	0.683937  
488.000000	0.480804  
488.500000	0.287691  
489.000000	0.151656  
489.500000	0.032206  
490.000000	-0.016473 
490.500000	0.008749  
491.000000	0.093396  
491.500000	0.168295  
492.000000	0.186926  
492.500000	0.223141  
493.000000	0.218924  
493.500000	0.190847  
494.000000	0.190558  
494.500000	0.172674  
495.000000	0.230713  
495.500000	0.322171  
496.000000	0.410039  
496.500000	0.438906  
497.000000	0.481746  
497.500000	0.501368  
498.000000	0.449791  
498.500000	0.418163  
499.000000	0.319937  
499.500000	0.245228  
500.000000	0.194761  
500.500000	0.144707  
501.000000	0.093325  
501.500000	0.089964  
502.000000	0.167791  
502.500000	0.259866  
503.000000	0.407009  
503.500000	0.485805  
504.000000	0.526151  
504.500000	0.536470  
505.000000	0.472805  
505.500000	0.357511  
506.000000	0.172294  
506.500000	0.002362  
507.000000	-0.155632 
507.500000	-0.221192 
508.000000	-0.276821 
508.500000	-0.317182 
509.000000	-0.309697 
509.500000	-0.270230 
510.000000	-0.214929 
510.500000	-0.174005 
511.000000	-0.054894 
511.500000	0.038590  
512.000000	0.162879  
512.500000	0.285991  
513.000000	0.361851  
513.500000	0.402661  
514.000000	0.417832  
514.500000	0.381246  
515.000000	0.320878  
515.500000	0.354868  
516.000000	0.403092  
516.500000	0.471732  
517.000000	0.547276  
517.500000	0.585450  
518.000000	0.589778  
518.500000	0.590999  
519.000000	0.519852  
519.500000	0.390378  
520.000000	0.295079  
520.500000	0.232091  
521.000000	0.200021  
521.500000	0.195350  
522.000000	0.170174  
522.500000	0.119794  
523.000000	0.070144  
523.500000	0.030858  
524.000000	-0.043251 
524.500000	-0.117802 
525.000000	-0.131540 
525.500000	-0.089197 
526.000000	0.004119  
526.500000	0.102882  
527.000000	0.187110  
527.500000	0.221425  
528.000000	0.252047  
528.500000	0.203267  
529.000000	0.117008  
529.500000	0.047508  
530.000000	-0.022383 
530.500000	-0.098981 
531.000000	-0.146838 
531.500000	-0.121532 
532.000000	-0.117958 
532.500000	-0.126810 
533.000000	-0.212883 
533.500000	-0.313183 
534.000000	-0.380082 
534.500000	-0.420600 
535.000000	-0.451425 
535.500000	-0.454800 
536.000000	-0.328868 
536.500000	-0.169897 
537.000000	-0.047961 
537.500000	-0.029020 
538.000000	-0.086849 
538.500000	-0.199436 
539.000000	-0.346478 
539.500000	-0.500433 
540.000000	-0.686878 
540.500000	-0.756784 
541.000000	-0.747929 
541.500000	-0.651440 
542.000000	-0.479293 
542.500000	-0.303211 
543.000000	-0.146926 
543.500000	-0.024975 
544.000000	0.062456  
544.500000	0.038212  
545.000000	-0.038051 
545.500000	-0.155834 
546.000000	-0.252969 
546.500000	-0.294416 
547.000000	-0.324677 
547.500000	-0.323470 
548.000000	-0.274275 
548.500000	-0.182930 
549.000000	-0.129170 
549.500000	-0.126567 
550.000000	-0.162905 
550.500000	-0.190663 
551.000000	-0.206981 
551.500000	-0.223141 
552.000000	-0.243970 
552.500000	-0.234258 
553.000000	-0.188532 
553.500000	-0.171891 
554.000000	-0.225924 
554.500000	-0.291323 
555.000000	-0.366280 
555.500000	-0.433331 
556.000000	-0.474863 
556.500000	-0.537359 
557.000000	-0.612689 
557.500000	-0.635944 
558.000000	-0.648120 
558.500000	-0.681819 
559.000000	-0.676636 
559.500000	-0.668146 
560.000000	-0.616563 
560.500000	-0.501024 
561.000000	-0.402691 
561.500000	-0.379738 
562.000000	-0.412737 
562.500000	-0.451287 
563.000000	-0.551378 
563.500000	-0.628778 
564.000000	-0.737499 
564.500000	-0.808664 
565.000000	-0.799547 
565.500000	-0.751168 
566.000000	-0.719482 
566.500000	-0.716681 
567.000000	-0.683771 
567.500000	-0.668652 
568.000000	-0.633412 
568.500000	-0.632654 
569.000000	-0.630622 
569.500000	-0.574611 
570.000000	-0.511449 
570.500000	-0.491625 
571.000000	-0.501920 
571.500000	-0.486842 
572.000000	-0.463602 
572.500000	-0.395177 
573.000000	-0.333375 
573.500000	-0.313329 
574.000000	-0.297658 
574.500000	-0.333998 
575.000000	-0.449814 
575.500000	-0.627605 
576.000000	-0.812515 
576.500000	-0.931799 
577.000000	-0.948443 
577.500000	-0.863517 
578.000000	-0.731171 
578.500000	-0.538295 
579.000000	-0.339972 
579.500000	-0.154579 
580.000000	-0.051055 
580.500000	-0.027864 
581.000000	-0.040566 
581.500000	-0.099582 
582.000000	-0.157272 
582.500000	-0.191085 
583.000000	-0.242137 
583.500000	-0.317869 
584.000000	-0.370602 
584.500000	-0.472483 
585.000000	-0.597020 
585.500000	-0.660853 
586.000000	-0.724799 
586.500000	-0.769484 
587.000000	-0.728671 
587.500000	-0.644497 
588.000000	-0.549119 
588.500000	-0.406157 
589.000000	-0.356892 
589.500000	-0.389699 
590.000000	-0.449679 
590.500000	-0.588400 
591.000000	-0.780091 
591.500000	-0.932783 
592.000000	-1.011606 
592.500000	-1.056486 
593.000000	-0.999305 
593.500000	-0.890677 
594.000000	-0.733961 
594.500000	-0.543772 
595.000000	-0.362305 
595.500000	-0.225956 
596.000000	-0.130973 
596.500000	-0.032108 
597.000000	0.007049  
597.500000	0.016293  
598.000000	-0.021672 
598.500000	-0.065071 
599.000000	-0.113400 
599.500000	-0.155865 
600.000000	-0.202316 
600.500000	-0.206502 
601.000000	-0.157001 
601.500000	-0.114650 
602.000000	-0.095131 
602.500000	-0.142192 
603.000000	-0.235973 
603.500000	-0.350314 
604.000000	-0.482241 
604.500000	-0.592426 
605.000000	-0.635020 
605.500000	-0.596449 
606.000000	-0.544032 
606.500000	-0.437577 
607.000000	-0.352200 
607.500000	-0.304912 
608.000000	-0.236528 
608.500000	-0.175192 
609.000000	-0.138369 
609.500000	-0.141942 
610.000000	-0.120526 
610.500000	-0.097694 
611.000000	-0.084719 
611.500000	-0.120229 
612.000000	-0.246379 
612.500000	-0.381851 
613.000000	-0.500342 
613.500000	-0.585479 
614.000000	-0.647771 
614.500000	-0.692189 
615.000000	-0.694793 
615.500000	-0.680162 
616.000000	-0.669787 
616.500000	-0.633195 
617.000000	-0.568887 
617.500000	-0.397223 
618.000000	-0.100670 
618.500000	0.388481  
619.000000	1.032070  
619.500000	1.825002  
620.000000	2.725553  
620.500000	3.737772  
621.000000	4.919062  
621.500000	6.198786  
622.000000	7.578142  
622.500000	9.053436  
623.000000	10.658189 
623.500000	12.362618 
624.000000	14.035863 
624.500000	15.575814 
625.000000	16.913451 
625.500000	18.077374 
626.000000	19.057547 
626.500000	19.792612 
627.000000	20.317591 
627.500000	20.629096 
628.000000	20.808030 
628.500000	20.771746 
629.000000	20.541601 
629.500000	20.123285 
630.000000	19.421842 
630.500000	18.585877 
631.000000	17.542804 
631.500000	16.351062 
632.000000	14.921135 
632.500000	13.392419 
633.000000	11.755492 
633.500000	10.122428 
634.000000	8.540375  
634.500000	6.905396  
635.000000	5.362325  
635.500000	4.061265  
636.000000	2.990189  
636.500000	2.044759  
637.000000	1.334515  
637.500000	0.806758  
638.000000	0.468349  
638.500000	0.332453  
639.000000	0.250301  
639.500000	0.129617  
640.000000	0.104445  
640.500000	0.111060  
641.000000	-0.005696 
641.500000	-0.151172 
642.000000	-0.278973 
642.500000	-0.348426 
643.000000	-0.398285 
643.500000	-0.384571 
644.000000	-0.440277 
644.500000	-0.441458 
645.000000	-0.419978 
645.500000	-0.421761 
646.000000	-0.440098 
646.500000	-0.446883 
647.000000	-0.393958 
647.500000	-0.389024 
648.000000	-0.343423 
648.500000	-0.306028 
649.000000	-0.304112 
649.500000	-0.246094 
650.000000	-0.148427 
650.500000	-0.054206 
651.000000	0.045050  
651.500000	0.181599  
652.000000	0.235018  
652.500000	0.297542  
653.000000	0.352621  
653.500000	0.319896  
654.000000	0.274324  
654.500000	0.221973  
655.000000	0.169713  
655.500000	0.172632  
656.000000	0.220291  
656.500000	0.221746  
657.000000	0.247779  
657.500000	0.323129  
658.000000	0.362026  
658.500000	0.433349  
659.000000	0.506837  
659.500000	0.632239  
660.000000	0.815790  
660.500000	0.999207  
661.000000	1.143371  
661.500000	1.206927  
662.000000	1.272657  
662.500000	1.304621  
663.000000	1.350783  
663.500000	1.423053  
664.000000	1.548894  
664.500000	1.788190  
665.000000	2.066326  
665.500000	2.286663  
666.000000	2.372461  
666.500000	2.400882  
667.000000	2.334803  
667.500000	2.161559  
668.000000	1.961417  
668.500000	1.784889  
669.000000	1.751364  
669.500000	1.882079  
670.000000	2.122519  
670.500000	2.393293  
671.000000	2.685210  
671.500000	3.072225  
672.000000	3.419470  
672.500000	3.787471  
673.000000	4.132042  
673.500000	4.406063  
674.000000	4.617407  
674.500000	4.747284  
675.000000	4.887492  
675.500000	4.968211  
676.000000	5.156855  
676.500000	5.382402  
677.000000	5.692879  
677.500000	6.131446  
678.000000	6.558608  
678.500000	6.865912  
679.000000	6.981409  
679.500000	7.070920  
680.000000	7.093302  
680.500000	7.097222  
681.000000	7.093694  
681.500000	7.172223  
682.000000	7.400761  
682.500000	7.695735  
683.000000	8.027480  
683.500000	8.293200  
684.000000	8.550664  
684.500000	8.827241  
685.000000	9.090078  
685.500000	9.368966  
686.000000	9.664184  
686.500000	9.977117  
687.000000	10.292603 
687.500000	10.640062 
688.000000	11.000349 
688.500000	11.316736 
689.000000	11.680923 
689.500000	12.104455 
690.000000	12.587272 
690.500000	13.055315 
691.000000	13.504787 
691.500000	13.909826 
692.000000	14.238904 
692.500000	14.511045 
693.000000	14.585363 
693.500000	14.561016 
694.000000	14.508079 
694.500000	14.480081 
695.000000	14.466656 
695.500000	14.504201 
696.000000	14.674280 
696.500000	15.049182 
697.000000	15.566616 
697.500000	16.039123 
698.000000	16.504923 
698.500000	16.878180 
699.000000	17.123206 
699.500000	17.235475 
700.000000	17.266379 
700.500000	17.273378 
701.000000	17.351088 
701.500000	17.462341 
702.000000	17.598534 
702.500000	17.905118 
703.000000	18.325202 
703.500000	18.698378 
704.000000	19.033468 
704.500000	19.269589 
705.000000	19.389659 
705.500000	19.458347 
706.000000	19.385139 
706.500000	19.116325 
707.000000	18.858191 
707.500000	18.686474 
708.000000	18.553284 
708.500000	18.537303 
709.000000	18.604776 
709.500000	18.786107 
710.000000	19.148652 
710.500000	19.592443 
711.000000	19.932570 
711.500000	20.170460 
712.000000	20.290944 
712.500000	20.316308 
713.000000	20.288684 
713.500000	20.155900 
714.000000	19.977438 
714.500000	19.870292 
715.000000	19.831339 
715.500000	19.798364 
716.000000	19.797128 
716.500000	19.757139 
717.000000	19.789454 
717.500000	19.850478 
718.000000	19.870265 
718.500000	19.899600 
719.000000	20.002417 
719.500000	20.160256 
720.000000	20.268823 
720.500000	20.355724 
721.000000	20.363639 
721.500000	20.388702 
722.000000	20.380694 
722.500000	20.321801 
723.000000	20.219366 
723.500000	20.133520 
724.000000	20.147333 
724.500000	20.132676 
725.000000	20.080539 
725.500000	19.979270 
726.000000	19.932615 
726.500000	19.905222 
727.000000	19.895377 
727.500000	19.895679 
728.000000	19.866837 
728.500000	19.924771 
729.000000	19.949418 
729.500000	19.953743 
730.000000	19.911058 
730.500000	19.914082 
731.000000	19.965835 
731.500000	20.019205 
732.000000	20.143929 
732.500000	20.203940 
733.000000	20.248659 
733.500000	20.277949 
734.000000	20.293665 
734.500000	20.240777 
735.000000	20.153842 
735.500000	20.056400 
736.000000	19.938072 
736.500000	19.961951 
737.000000	20.003882 
737.500000	20.000707 
738.000000	19.957267 
738.500000	19.918192 
739.000000	19.857378 
739.500000	19.803052 
740.000000	19.719355 
740.500000	19.563058 
741.000000	19.492230 
741.500000	19.475818 
742.000000	19.449945 
742.500000	19.421264 
743.000000	19.375051 
743.500000	19.325126 
744.000000	19.266250 
744.500000	19.187152 
745.000000	18.982625 
745.500000	18.696063 
746.000000	18.346632 
746.500000	18.029763 
747.000000	17.744720 
747.500000	17.547392 
748.000000	17.454819 
748.500000	17.480222 
749.000000	17.660608 
749.500000	17.876069 
750.000000	18.016299 
750.500000	18.004676 
751.000000	17.929030 
751.500000	17.715709 
752.000000	17.393665 
752.500000	17.009951 
753.000000	16.641979 
753.500000	16.341280 
754.000000	16.160188 
754.500000	16.038908 
755.000000	16.002694 
755.500000	16.085122 
756.000000	16.190449 
756.500000	16.207841 
757.000000	16.088802 
757.500000	15.912085 
758.000000	15.617873 
758.500000	15.330219 
759.000000	14.988851 
759.500000	14.737675 
760.000000	14.650323 
760.500000	14.708703 
761.000000	14.706850 
761.500000	14.708347 
762.000000	14.800600 
762.500000	14.832393 
763.000000	14.814310 
763.500000	14.730772 
764.000000	14.654578 
764.500000	14.621648 
765.000000	14.651668 
765.500000	14.523809 
766.000000	14.292670 
766.500000	14.046443 
767.000000	13.813460 
767.500000	13.503015 
768.000000	13.153504 
768.500000	12.802560 
769.000000	12.509586 
769.500000	12.368348 
770.000000	12.216873 
770.500000	12.063054 
771.000000	11.964100 
771.500000	12.032650 
772.000000	12.080444 
772.500000	12.136939 
773.000000	12.211175 
773.500000	12.184047 
774.000000	12.144945 
774.500000	11.985292 
775.000000	11.672605 
775.500000	11.305501 
776.000000	11.071493 
776.500000	10.901389 
777.000000	10.802511 
777.500000	10.791376 
778.000000	10.765912 
778.500000	10.823464 
779.000000	10.854838 
779.500000	10.717738 
780.000000	10.491665 
780.500000	10.222855 
781.000000	9.908805  
781.500000	9.559032  
782.000000	9.252787  
782.500000	8.902180  
783.000000	8.635992  
783.500000	8.503285  
784.000000	8.448721  
784.500000	8.452091  
785.000000	8.487514  
785.500000	8.584434  
786.000000	8.673822  
786.500000	8.769681  
787.000000	8.669535  
787.500000	8.483911  
788.000000	8.164046  
788.500000	7.851880  
789.000000	7.589374  
789.500000	7.350903  
790.000000	7.273759  
790.500000	7.262410  
791.000000	7.252170  
791.500000	7.181006  
792.000000	7.208907  
792.500000	7.109417  
793.000000	7.042929  
793.500000	6.963162  
794.000000	6.885255  
794.500000	6.985086  
795.000000	7.072713  
795.500000	7.011529  
796.000000	6.757125  
796.500000	6.609127  
797.000000	6.368026  
797.500000	6.149070  
798.000000	5.921273  
798.500000	5.713188  
799.000000	5.731746  
799.500000	5.774525  
800.000000	5.764514  
800.500000	5.646089  
801.000000	5.547469  
801.500000	5.451898  
802.000000	5.410041  
802.500000	5.398068  
803.000000	5.423607  
803.500000	5.507098  
804.000000	5.482144  
804.500000	5.393425  
805.000000	5.199037  
805.500000	4.867538  
806.000000	4.556271  
806.500000	4.258141  
807.000000	4.036667  
807.500000	3.941838  
808.000000	3.884389  
808.500000	3.870027  
809.000000	3.908860  
809.500000	4.003628  
810.000000	4.018737  
810.500000	4.073848  
811.000000	4.179199  
811.500000	4.247854  
812.000000	4.269821  
812.500000	4.220851  
813.000000	4.099789  
813.500000	3.958486  
814.000000	3.839325  
814.500000	3.684995  
815.000000	3.552743  
815.500000	3.515271  
816.000000	3.502265  
816.500000	3.430368  
817.000000	3.347145  
817.500000	3.203030  
818.000000	3.049613  
818.500000	2.899018  
819.000000	2.761416  
819.500000	2.585308  
820.000000	2.417503  
820.500000	2.308646  
821.000000	2.193044  
821.500000	2.155515  
822.000000	2.190336  
822.500000	2.287076  
823.000000	2.438168  
823.500000	2.578982  
824.000000	2.686636  
824.500000	2.696113  
825.000000	2.645736  
825.500000	2.560591  
826.000000	2.395278  
826.500000	2.212598  
827.000000	2.058836  
827.500000	1.944948  
828.000000	1.780743  
828.500000	1.634837  
829.000000	1.496252  
829.500000	1.394397  
830.000000	1.340872  
830.500000	1.351222  
831.000000	1.387747  
831.500000	1.454967  
832.000000	1.616261  
832.500000	1.721365  
833.000000	1.787381  
833.500000	1.839513  
834.000000	1.877480  
834.500000	1.855665  
835.000000	1.817811  
835.500000	1.752006  
836.000000	1.637588  
836.500000	1.523615  
837.000000	1.343815  
837.500000	1.130532  
838.000000	0.895790  
838.500000	0.788161  
839.000000	0.736369  
839.500000	0.735995  
840.000000	0.778147  
840.500000	0.785828  
841.000000	0.844816  
841.500000	0.890038  
842.000000	0.959543  
842.500000	0.972649  
843.000000	1.024180  
843.500000	1.079646  
844.000000	1.100257  
844.500000	1.096507  
845.000000	0.948259  
845.500000	0.805535  
846.000000	0.617445  
846.500000	0.523148  
847.000000	0.489240  
847.500000	0.552835  
848.000000	0.644494  
848.500000	0.769007  
849.000000	0.975230  
849.500000	1.011111  
850.000000	0.967352  
850.500000	0.790249  
851.000000	0.544263  
851.500000	0.345875  
852.000000	0.234336  
852.500000	0.176397  
853.000000	0.144372  
853.500000	0.263012  
854.000000	0.379505  
854.500000	0.461175  
855.000000	0.469125  
855.500000	0.417523  
856.000000	0.363549  
856.500000	0.290235  
857.000000	0.235334  
857.500000	0.140272  
858.000000	0.139418  
858.500000	0.215628  
859.000000	0.282840  
859.500000	0.363933  
860.000000	0.445336  
860.500000	0.523492  
861.000000	0.542937  
861.500000	0.521329  
862.000000	0.408079  
862.500000	0.273826  
863.000000	0.166354  
863.500000	0.044640  
864.000000	-0.052901 
864.500000	-0.133589 
865.000000	-0.172992 
865.500000	-0.174150 
866.000000	-0.139238 
866.500000	-0.106753 
867.000000	-0.076116 
867.500000	-0.041302 
868.000000	-0.045922 
868.500000	-0.027521 
869.000000	-0.084128 
869.500000	-0.167206 
870.000000	-0.281696 
870.500000	-0.416056 
871.000000	-0.493787 
871.500000	-0.528323 
872.000000	-0.546740 
872.500000	-0.533805 
873.000000	-0.456765 
873.500000	-0.407463 
874.000000	-0.348077 
874.500000	-0.315112 
875.000000	-0.345296 
875.500000	-0.326294 
876.000000	-0.305851 
876.500000	-0.318250 
877.000000	-0.312655 
877.500000	-0.271510 
878.000000	-0.261359 
878.500000	-0.239432 
879.000000	-0.219196 
879.500000	-0.254665 
880.000000	-0.239240 
880.500000	-0.243477 
881.000000	-0.297212 
881.500000	-0.306902 
882.000000	-0.291360 
882.500000	-0.272820 
883.000000	-0.245730 
883.500000	-0.208794 
884.000000	-0.180530 
884.500000	-0.100628 
885.000000	-0.054957 
885.500000	-0.065115 
886.000000	-0.099412 
886.500000	-0.170584 
887.000000	-0.266884 
887.500000	-0.351451 
888.000000	-0.433952 
888.500000	-0.486707 
889.000000	-0.484933 
889.500000	-0.447424 
890.000000	-0.335959 
890.500000	-0.256657 
891.000000	-0.230806 
891.500000	-0.276287 
892.000000	-0.391135 
892.500000	-0.588792 
893.000000	-0.822741 
893.500000	-1.065297 
894.000000	-1.268574 
894.500000	-1.291058 

