PE FL                   SPECTRUM    ASCII       PEDS        1.60        
  -1
PP829E~1
23/10/10
15:04:39.00
23/10/10
15:04:39.00


444.500000
1









LS55
40.00
5.00
5.00
SCAN
1
20
100
100
0
500
0
2
0
1
7
ON
500 450 
1 0 0
#HDR
-1
-1
#GR
NM

0.00002384185791015625
0.0
250.000000
0.500000
390
8
3.811286
-4.999999
#DATA
250.000000	-4.999999 
250.500000	-4.092063 
251.000000	-3.210356 
251.500000	-2.996544 
252.000000	-2.747252 
252.500000	-2.676722 
253.000000	-2.649373 
253.500000	-2.837666 
254.000000	-2.918940 
254.500000	-2.955818 
255.000000	-2.779985 
255.500000	-2.471727 
256.000000	-2.641870 
256.500000	-2.833662 
257.000000	-3.132753 
257.500000	-3.409259 
258.000000	-3.493588 
258.500000	-3.723361 
259.000000	-3.964031 
259.500000	-3.896723 
260.000000	-3.663160 
260.500000	-3.406627 
261.000000	-3.112538 
261.500000	-2.981909 
262.000000	-2.990629 
262.500000	-2.906739 
263.000000	-3.102558 
263.500000	-3.467513 
264.000000	-3.799163 
264.500000	-4.092959 
265.000000	-4.210394 
265.500000	-4.313782 
266.000000	-4.144343 
266.500000	-3.847584 
267.000000	-3.510766 
267.500000	-2.949347 
268.000000	-2.413927 
268.500000	-1.741254 
269.000000	-1.099125 
269.500000	-0.461103 
270.000000	-0.257998 
270.500000	-0.164069 
271.000000	-0.238371 
271.500000	-0.900666 
272.000000	-1.288425 
272.500000	-1.623816 
273.000000	-1.544793 
273.500000	-1.363255 
274.000000	-0.897195 
274.500000	-0.453108 
275.000000	0.062040  
275.500000	0.351469  
276.000000	0.139981  
276.500000	0.201787  
277.000000	0.161111  
277.500000	0.088056  
278.000000	-0.113701 
278.500000	-0.322229 
279.000000	-0.079483 
279.500000	0.303336  
280.000000	0.689326  
280.500000	1.042953  
281.000000	1.400459  
281.500000	1.841552  
282.000000	2.271444  
282.500000	2.378959  
283.000000	1.971246  
283.500000	1.774001  
284.000000	1.516908  
284.500000	1.351841  
285.000000	1.542075  
285.500000	1.680891  
286.000000	1.916545  
286.500000	1.983767  
287.000000	1.771576  
287.500000	0.965327  
288.000000	0.124680  
288.500000	-0.749730 
289.000000	-1.346147 
289.500000	-1.270121 
290.000000	-0.898102 
290.500000	-0.314722 
291.000000	0.336162  
291.500000	0.945009  
292.000000	1.015871  
292.500000	0.777133  
293.000000	0.628827  
293.500000	0.319746  
294.000000	0.298184  
294.500000	0.354426  
295.000000	0.576932  
295.500000	0.769418  
296.000000	0.950065  
296.500000	0.851419  
297.000000	0.456600  
297.500000	0.182571  
298.000000	-0.009756 
298.500000	0.289525  
299.000000	0.711248  
299.500000	1.276725  
300.000000	1.833828  
300.500000	2.288336  
301.000000	2.561049  
301.500000	2.211041  
302.000000	1.419546  
302.500000	0.415930  
303.000000	-0.305472 
303.500000	-0.952060 
304.000000	-1.190388 
304.500000	-1.089054 
305.000000	-0.736625 
305.500000	-0.054136 
306.000000	0.605676  
306.500000	1.063324  
307.000000	1.410622  
307.500000	1.861639  
308.000000	2.274630  
308.500000	2.794837  
309.000000	3.172107  
309.500000	3.480393  
310.000000	3.735193  
310.500000	3.811286  
311.000000	3.728197  
311.500000	3.260849  
312.000000	2.601494  
312.500000	2.100225  
313.000000	1.785730  
313.500000	1.512732  
314.000000	1.319293  
314.500000	1.222071  
315.000000	1.327101  
315.500000	1.582554  
316.000000	1.817680  
316.500000	1.878276  
317.000000	2.101678  
317.500000	2.398752  
318.000000	2.707293  
318.500000	2.910844  
319.000000	2.937771  
319.500000	3.004863  
320.000000	3.026568  
320.500000	3.028349  
321.000000	2.873313  
321.500000	2.641625  
322.000000	2.211680  
322.500000	1.854957  
323.000000	1.525851  
323.500000	1.152858  
324.000000	1.044768  
324.500000	1.031368  
325.000000	1.159437  
325.500000	1.445254  
326.000000	1.770670  
326.500000	1.881179  
327.000000	1.978590  
327.500000	2.111104  
328.000000	2.032895  
328.500000	1.959001  
329.000000	2.011683  
329.500000	2.057573  
330.000000	2.115614  
330.500000	2.191543  
331.000000	2.219624  
331.500000	2.228179  
332.000000	2.319369  
332.500000	2.211917  
333.000000	2.008617  
333.500000	1.944566  
334.000000	1.810269  
334.500000	1.645760  
335.000000	1.528257  
335.500000	1.518904  
336.000000	1.510675  
336.500000	1.745409  
337.000000	1.946291  
337.500000	2.165615  
338.000000	2.453970  
338.500000	2.559669  
339.000000	2.507187  
339.500000	2.338662  
340.000000	2.226134  
340.500000	2.047453  
341.000000	1.976043  
341.500000	1.954287  
342.000000	2.050517  
342.500000	2.275220  
343.000000	2.450200  
343.500000	2.573891  
344.000000	2.572807  
344.500000	2.484964  
345.000000	2.341612  
345.500000	2.142905  
346.000000	1.894405  
346.500000	1.581009  
347.000000	1.345985  
347.500000	1.154325  
348.000000	1.034164  
348.500000	1.018220  
349.000000	0.985876  
349.500000	1.050049  
350.000000	1.179554  
350.500000	1.457914  
351.000000	1.580921  
351.500000	1.688320  
352.000000	1.715866  
352.500000	1.680834  
353.000000	1.582743  
353.500000	1.334229  
354.000000	1.066480  
354.500000	0.864478  
355.000000	0.880728  
355.500000	0.892124  
356.000000	0.968190  
356.500000	1.123204  
357.000000	1.366590  
357.500000	1.645256  
358.000000	1.847041  
358.500000	1.980272  
359.000000	2.089558  
359.500000	2.248983  
360.000000	2.410718  
360.500000	2.431510  
361.000000	2.299647  
361.500000	2.152047  
362.000000	1.952889  
362.500000	1.647272  
363.000000	1.311386  
363.500000	1.143056  
364.000000	1.091332  
364.500000	1.209160  
365.000000	1.371578  
365.500000	1.547754  
366.000000	1.695400  
366.500000	1.841510  
367.000000	1.832006  
367.500000	1.727050  
368.000000	1.646125  
368.500000	1.506819  
369.000000	1.414129  
369.500000	1.270922  
370.000000	1.111344  
370.500000	1.019791  
371.000000	0.999473  
371.500000	0.917331  
372.000000	0.846618  
372.500000	0.801333  
373.000000	0.757024  
373.500000	0.822821  
374.000000	0.901378  
374.500000	0.949215  
375.000000	1.020468  
375.500000	1.151705  
376.000000	1.247972  
376.500000	1.377914  
377.000000	1.491109  
377.500000	1.480782  
378.000000	1.504968  
378.500000	1.560354  
379.000000	1.543497  
379.500000	1.515505  
380.000000	1.475831  
380.500000	1.418928  
381.000000	1.381484  
381.500000	1.377671  
382.000000	1.240490  
382.500000	1.065914  
383.000000	0.925650  
383.500000	0.740227  
384.000000	0.517959  
384.500000	0.306102  
385.000000	0.079021  
385.500000	-0.091255 
386.000000	-0.088010 
386.500000	-0.080579 
387.000000	0.004752  
387.500000	0.144905  
388.000000	0.283379  
388.500000	0.396666  
389.000000	0.525473  
389.500000	0.586954  
390.000000	0.632312  
390.500000	0.718947  
391.000000	0.771144  
391.500000	0.815225  
392.000000	0.806529  
392.500000	0.784231  
393.000000	0.738500  
393.500000	0.724334  
394.000000	0.676150  
394.500000	0.640534  
395.000000	0.590607  
395.500000	0.588826  
396.000000	0.626233  
396.500000	0.626681  
397.000000	0.607136  
397.500000	0.655541  
398.000000	0.753115  
398.500000	0.845502  
399.000000	0.932311  
399.500000	0.959423  
400.000000	0.977434  
400.500000	0.983089  
401.000000	0.945735  
401.500000	0.836256  
402.000000	0.744821  
402.500000	0.707689  
403.000000	0.709881  
403.500000	0.724612  
404.000000	0.737774  
404.500000	0.679420  
405.000000	0.622207  
405.500000	0.574359  
406.000000	0.495794  
406.500000	0.402624  
407.000000	0.383710  
407.500000	0.413079  
408.000000	0.493680  
408.500000	0.624154  
409.000000	0.703801  
409.500000	0.742965  
410.000000	0.737558  
410.500000	0.684965  
411.000000	0.511699  
411.500000	0.361748  
412.000000	0.215006  
412.500000	0.139455  
413.000000	0.138510  
413.500000	0.166458  
414.000000	0.224079  
414.500000	0.345866  
415.000000	0.478673  
415.500000	0.540394  
416.000000	0.604142  
416.500000	0.601576  
417.000000	0.596797  
417.500000	0.559403  
418.000000	0.518562  
418.500000	0.452104  
419.000000	0.427992  
419.500000	0.416290  
420.000000	0.408721  
420.500000	0.463754  
421.000000	0.502198  
421.500000	0.534781  
422.000000	0.562754  
422.500000	0.590427  
423.000000	0.599832  
423.500000	0.605520  
424.000000	0.587799  
424.500000	0.566482  
425.000000	0.592302  
425.500000	0.614656  
426.000000	0.615454  
426.500000	0.585473  
427.000000	0.559430  
427.500000	0.534500  
428.000000	0.488546  
428.500000	0.428470  
429.000000	0.369213  
429.500000	0.344634  
430.000000	0.336093  
430.500000	0.343741  
431.000000	0.352897  
431.500000	0.369795  
432.000000	0.399962  
432.500000	0.417163  
433.000000	0.425159  
433.500000	0.428275  
434.000000	0.432957  
434.500000	0.443644  
435.000000	0.470602  
435.500000	0.483391  
436.000000	0.480727  
436.500000	0.478215  
437.000000	0.474115  
437.500000	0.455527  
438.000000	0.407323  
438.500000	0.336290  
439.000000	0.283188  
439.500000	0.268989  
440.000000	0.269609  
440.500000	0.282819  
441.000000	0.295913  
441.500000	0.321962  
442.000000	0.359973  
442.500000	0.397437  
443.000000	0.398686  
443.500000	0.405276  
444.000000	0.415988  
444.500000	0.431769  

