PE FL                   SPECTRUM    ASCII       PEDS        1.60        
  -1
PP822E~1
23/10/10
14:59:55.00
23/10/10
14:59:55.00


444.500000
1









LS55
5.00
5.00
5.00
SCAN
1
20
100
100
0
500
0
2
0
1
7
ON
500 450 
1 0 0
#HDR
-1
-1
#GR
NM

0.00002384185791015625
0.0
250.000000
0.500000
390
8
51.961821
-5.247266
#DATA
250.000000	3.600000  
250.500000	1.857307  
251.000000	0.090392  
251.500000	-1.369126 
252.000000	-2.490791 
252.500000	-3.164588 
253.000000	-3.672121 
253.500000	-3.904514 
254.000000	-3.949556 
254.500000	-3.879610 
255.000000	-3.828295 
255.500000	-3.541710 
256.000000	-3.108957 
256.500000	-2.362752 
257.000000	-1.522511 
257.500000	-0.772087 
258.000000	-0.480144 
258.500000	-0.123044 
259.000000	-0.160869 
259.500000	-0.385997 
260.000000	-0.450118 
260.500000	-0.504412 
261.000000	-0.274482 
261.500000	0.051094  
262.000000	0.529197  
262.500000	0.499324  
263.000000	0.363422  
263.500000	-0.350989 
264.000000	-1.330840 
264.500000	-2.470225 
265.000000	-3.686881 
265.500000	-4.704746 
266.000000	-5.247266 
266.500000	-5.146849 
267.000000	-4.749404 
267.500000	-4.092631 
268.000000	-3.492705 
268.500000	-2.853830 
269.000000	-2.555907 
269.500000	-2.393378 
270.000000	-2.426696 
270.500000	-2.344685 
271.000000	-2.318947 
271.500000	-2.293360 
272.000000	-2.045918 
272.500000	-1.509736 
273.000000	-0.852732 
273.500000	-0.624994 
274.000000	-0.494871 
274.500000	-0.615139 
275.000000	-0.863465 
275.500000	-1.275111 
276.000000	-1.858355 
276.500000	-2.309357 
277.000000	-2.253235 
277.500000	-1.952095 
278.000000	-1.750516 
278.500000	-1.427947 
279.000000	-0.977271 
279.500000	-0.641132 
280.000000	-0.245951 
280.500000	-0.015262 
281.000000	0.129603  
281.500000	0.672862  
282.000000	1.041233  
282.500000	1.389628  
283.000000	1.626150  
283.500000	1.754205  
284.000000	1.545386  
284.500000	1.249704  
285.000000	0.927155  
285.500000	0.634099  
286.000000	0.890722  
286.500000	1.384575  
287.000000	2.442877  
287.500000	3.455164  
288.000000	4.228687  
288.500000	4.576256  
289.000000	4.599896  
289.500000	3.831661  
290.000000	2.880079  
290.500000	1.743567  
291.000000	0.681263  
291.500000	0.042227  
292.000000	-0.432788 
292.500000	-0.698200 
293.000000	-0.799879 
293.500000	-0.472317 
294.000000	-0.372987 
294.500000	0.009817  
295.000000	0.378388  
295.500000	0.736658  
296.000000	1.031021  
296.500000	1.206380  
297.000000	1.066518  
297.500000	0.761199  
298.000000	0.643767  
298.500000	0.119341  
299.000000	-0.376690 
299.500000	-0.672765 
300.000000	-0.694720 
300.500000	-0.729118 
301.000000	-0.623793 
301.500000	-0.796588 
302.000000	-0.948673 
302.500000	-1.031486 
303.000000	-1.202534 
303.500000	-1.601358 
304.000000	-1.988482 
304.500000	-2.400323 
305.000000	-2.767622 
305.500000	-2.783002 
306.000000	-2.912106 
306.500000	-2.563690 
307.000000	-1.836040 
307.500000	-0.686193 
308.000000	0.585921  
308.500000	1.908174  
309.000000	2.976601  
309.500000	3.765607  
310.000000	4.462555  
310.500000	4.604392  
311.000000	4.731411  
311.500000	4.461130  
312.000000	4.385573  
312.500000	4.384378  
313.000000	4.602555  
313.500000	4.677185  
314.000000	4.484960  
314.500000	4.432705  
315.000000	4.013337  
315.500000	3.762422  
316.000000	3.297205  
316.500000	3.075607  
317.000000	3.143690  
317.500000	3.634409  
318.000000	4.466673  
318.500000	5.306975  
319.000000	6.424885  
319.500000	7.118651  
320.000000	7.714363  
320.500000	7.905677  
321.000000	7.823607  
321.500000	7.551093  
322.000000	7.319100  
322.500000	7.168320  
323.000000	7.101139  
323.500000	7.359003  
324.000000	7.582277  
324.500000	7.888219  
325.000000	8.231049  
325.500000	8.623988  
326.000000	8.963753  
326.500000	9.375870  
327.000000	9.729549  
327.500000	10.115968 
328.000000	10.504854 
328.500000	10.772441 
329.000000	10.984669 
329.500000	11.211457 
330.000000	11.565076 
330.500000	11.743795 
331.000000	11.900157 
331.500000	12.002766 
332.000000	12.259701 
332.500000	12.475263 
333.000000	12.657183 
333.500000	12.720661 
334.000000	12.831708 
334.500000	13.033471 
335.000000	13.110065 
335.500000	12.904933 
336.000000	12.706621 
336.500000	12.827945 
337.000000	13.085282 
337.500000	13.430672 
338.000000	13.752195 
338.500000	14.423684 
339.000000	15.314088 
339.500000	16.023180 
340.000000	16.372952 
340.500000	16.465893 
341.000000	16.555383 
341.500000	16.504594 
342.000000	16.147361 
342.500000	15.518483 
343.000000	14.978916 
343.500000	14.827248 
344.000000	14.807275 
344.500000	14.932939 
345.000000	15.199816 
345.500000	15.834713 
346.000000	16.920281 
346.500000	18.058639 
347.000000	19.002347 
347.500000	19.603864 
348.000000	20.336242 
348.500000	20.978276 
349.000000	21.674563 
349.500000	22.148550 
350.000000	22.412805 
350.500000	23.033534 
351.000000	23.761506 
351.500000	24.549078 
352.000000	25.161340 
352.500000	25.770835 
353.000000	26.613123 
353.500000	27.945692 
354.000000	29.440259 
354.500000	30.871509 
355.000000	32.650624 
355.500000	34.709081 
356.000000	36.764415 
356.500000	38.506902 
357.000000	39.665077 
357.500000	40.565145 
358.000000	41.535335 
358.500000	42.458749 
359.000000	43.152835 
359.500000	43.653427 
360.000000	44.404172 
360.500000	45.532754 
361.000000	46.903389 
361.500000	48.062055 
362.000000	49.257375 
362.500000	50.333323 
363.000000	51.165519 
363.500000	51.875952 
364.000000	51.961821 
364.500000	51.664643 
365.000000	51.138697 
365.500000	50.393177 
366.000000	49.348959 
366.500000	48.458992 
367.000000	47.793227 
367.500000	47.052663 
368.000000	46.611118 
368.500000	46.227599 
369.000000	45.756775 
369.500000	45.154322 
370.000000	44.575069 
370.500000	43.904579 
371.000000	43.394116 
371.500000	43.525022 
372.000000	43.861499 
372.500000	44.331321 
373.000000	44.997607 
373.500000	45.508081 
374.000000	45.833791 
374.500000	46.205630 
375.000000	46.490433 
375.500000	46.483084 
376.000000	46.744980 
376.500000	47.294134 
377.000000	47.882806 
377.500000	48.755423 
378.000000	49.629129 
378.500000	50.158148 
379.000000	50.430999 
379.500000	50.432748 
380.000000	50.173503 
380.500000	49.812325 
381.000000	49.283820 
381.500000	48.511511 
382.000000	47.727749 
382.500000	47.231430 
383.000000	46.748198 
383.500000	46.148023 
384.000000	45.268701 
384.500000	44.229936 
385.000000	43.225371 
385.500000	42.107992 
386.000000	40.940312 
386.500000	39.496219 
387.000000	38.079087 
387.500000	36.835608 
388.000000	35.804174 
388.500000	34.725687 
389.000000	33.382525 
389.500000	31.842019 
390.000000	30.107952 
390.500000	28.567996 
391.000000	26.870383 
391.500000	24.987033 
392.000000	23.159816 
392.500000	21.693808 
393.000000	20.720419 
393.500000	19.976076 
394.000000	19.375489 
394.500000	19.011382 
395.000000	19.109283 
395.500000	19.408922 
396.000000	19.656956 
396.500000	19.776019 
397.000000	19.794145 
397.500000	19.718349 
398.000000	19.353219 
398.500000	18.678390 
399.000000	17.827784 
399.500000	16.954466 
400.000000	15.989083 
400.500000	15.134367 
401.000000	14.387181 
401.500000	13.757864 
402.000000	13.345536 
402.500000	13.095420 
403.000000	12.930022 
403.500000	12.829997 
404.000000	12.832870 
404.500000	12.757724 
405.000000	12.677785 
405.500000	12.627114 
406.000000	12.377820 
406.500000	12.027356 
407.000000	11.578614 
407.500000	11.080489 
408.000000	10.584388 
408.500000	10.212736 
409.000000	9.851775  
409.500000	9.648161  
410.000000	9.677608  
410.500000	9.672130  
411.000000	9.675169  
411.500000	9.622562  
412.000000	9.526414  
412.500000	9.414049  
413.000000	9.417209  
413.500000	9.416054  
414.000000	9.515890  
414.500000	9.784355  
415.000000	9.986539  
415.500000	10.287437 
416.000000	10.621271 
416.500000	10.925059 
417.000000	11.124726 
417.500000	11.393358 
418.000000	11.629097 
418.500000	11.895624 
419.000000	12.149955 
419.500000	12.195902 
420.000000	12.259344 
420.500000	12.411064 
421.000000	12.573181 
421.500000	12.719942 
422.000000	12.935412 
422.500000	13.164443 
423.000000	13.573023 
423.500000	14.084508 
424.000000	14.470740 
424.500000	14.869064 
425.000000	15.465535 
425.500000	16.109973 
426.000000	16.824099 
426.500000	17.489905 
427.000000	17.954032 
427.500000	18.484918 
428.000000	18.932108 
428.500000	19.153230 
429.000000	19.304470 
429.500000	19.600740 
430.000000	19.962783 
430.500000	20.637440 
431.000000	21.619075 
431.500000	22.767228 
432.000000	24.277969 
432.500000	26.305199 
433.000000	28.567731 
433.500000	30.839098 
434.000000	33.107676 
434.500000	35.148329 
435.000000	36.913318 
435.500000	38.467193 
436.000000	39.572423 
436.500000	40.186732 
437.000000	40.647861 
437.500000	40.856719 
438.000000	40.946578 
438.500000	40.924093 
439.000000	40.859922 
439.500000	40.771758 
440.000000	41.124109 
440.500000	41.738716 
441.000000	42.523754 
441.500000	43.682749 
442.000000	45.035518 
442.500000	46.593472 
443.000000	48.104284 
443.500000	49.407163 
444.000000	50.238742 
444.500000	50.972238 

