PE FL                   SPECTRUM    ASCII       PEDS        1.60        
  -1
PP823E~1
23/10/10
15:00:36.00
23/10/10
15:00:36.00


444.500000
1









LS55
10.00
5.00
5.00
SCAN
1
20
100
100
0
500
0
2
0
1
7
ON
500 450 
1 0 0
#HDR
-1
-1
#GR
NM

0.00002384185791015625
0.0
250.000000
0.500000
390
8
2.683590
-4.999999
#DATA
250.000000	-4.999999 
250.500000	-3.648335 
251.000000	-2.413405 
251.500000	-1.570369 
252.000000	-1.509349 
252.500000	-1.353523 
253.000000	-1.766844 
253.500000	-2.288816 
254.000000	-2.726534 
254.500000	-2.853232 
255.000000	-2.822093 
255.500000	-2.517318 
256.000000	-2.146478 
256.500000	-2.377856 
257.000000	-2.276192 
257.500000	-2.140530 
258.000000	-2.024326 
258.500000	-1.912607 
259.000000	-1.565966 
259.500000	-1.149226 
260.000000	-0.879432 
260.500000	-0.505294 
261.000000	-0.951566 
261.500000	-1.384808 
262.000000	-1.714909 
262.500000	-2.140920 
263.000000	-2.570460 
263.500000	-2.643053 
264.000000	-2.360713 
264.500000	-2.167742 
265.000000	-1.730956 
265.500000	-1.813017 
266.000000	-2.091499 
266.500000	-2.564634 
267.000000	-3.229097 
267.500000	-3.765277 
268.000000	-3.978872 
268.500000	-3.770470 
269.000000	-3.337058 
269.500000	-2.781903 
270.000000	-2.156613 
270.500000	-1.472920 
271.000000	-0.875037 
271.500000	-0.921497 
272.000000	-1.125173 
272.500000	-1.289909 
273.000000	-1.651694 
273.500000	-1.867097 
274.000000	-1.929097 
274.500000	-1.713534 
275.000000	-1.109785 
275.500000	-0.357738 
276.000000	-0.185764 
276.500000	-0.132729 
277.000000	-0.017585 
277.500000	-0.351035 
278.000000	-1.003268 
278.500000	-1.791586 
279.000000	-2.461386 
279.500000	-2.744233 
280.000000	-2.725484 
280.500000	-2.874344 
281.000000	-2.899565 
281.500000	-2.370371 
282.000000	-1.673361 
282.500000	-1.237754 
283.000000	-0.880160 
283.500000	-0.616943 
284.000000	-0.160577 
284.500000	0.152789  
285.000000	0.054756  
285.500000	-0.473269 
286.000000	-0.926827 
286.500000	-1.041157 
287.000000	-1.077717 
287.500000	-1.115220 
288.000000	-1.292642 
288.500000	-1.227134 
289.000000	-1.022236 
289.500000	-0.876751 
290.000000	-1.160627 
290.500000	-1.757275 
291.000000	-2.216099 
291.500000	-2.565844 
292.000000	-2.415984 
292.500000	-2.352973 
293.000000	-2.057258 
293.500000	-1.592985 
294.000000	-1.015200 
294.500000	-0.604864 
295.000000	-0.493684 
295.500000	-0.620780 
296.000000	-1.002825 
296.500000	-1.228508 
297.000000	-1.356765 
297.500000	-1.440888 
298.000000	-1.304365 
298.500000	-0.982965 
299.000000	-0.619838 
299.500000	-0.295347 
300.000000	-0.111374 
300.500000	-0.254074 
301.000000	-0.463024 
301.500000	-0.710424 
302.000000	-1.166030 
302.500000	-1.394201 
303.000000	-1.367128 
303.500000	-1.387433 
304.000000	-1.410573 
304.500000	-1.464225 
305.000000	-1.504464 
305.500000	-1.323347 
306.000000	-0.995065 
306.500000	-0.922161 
307.000000	-0.918529 
307.500000	-0.593574 
308.000000	-0.296271 
308.500000	-0.078759 
309.000000	-0.032380 
309.500000	-0.185242 
310.000000	-0.084307 
310.500000	0.042995  
311.000000	0.014413  
311.500000	-0.259742 
312.000000	-0.282354 
312.500000	-0.281412 
313.000000	-0.153829 
313.500000	-0.009069 
314.000000	-0.012336 
314.500000	0.079041  
315.000000	0.064224  
315.500000	0.067679  
316.000000	-0.189375 
316.500000	-0.219496 
317.000000	-0.091429 
317.500000	0.181929  
318.000000	0.656609  
318.500000	1.026564  
319.000000	1.464640  
319.500000	1.650299  
320.000000	1.575977  
320.500000	1.192546  
321.000000	0.801375  
321.500000	0.563892  
322.000000	0.457740  
322.500000	0.755721  
323.000000	1.068997  
323.500000	1.513573  
324.000000	1.838974  
324.500000	2.035211  
325.000000	1.953146  
325.500000	1.682593  
326.000000	1.502132  
326.500000	1.277633  
327.000000	1.264723  
327.500000	1.310061  
328.000000	1.378761  
328.500000	1.356293  
329.000000	1.267547  
329.500000	1.079969  
330.000000	0.764046  
330.500000	0.536111  
331.000000	0.216007  
331.500000	-0.012837 
332.000000	-0.087928 
332.500000	-0.012110 
333.000000	0.057300  
333.500000	0.191208  
334.000000	0.344598  
334.500000	0.442432  
335.000000	0.737778  
335.500000	1.064300  
336.000000	1.428549  
336.500000	1.817067  
337.000000	2.229949  
337.500000	2.468756  
338.000000	2.620097  
338.500000	2.615976  
339.000000	2.412308  
339.500000	2.139413  
340.000000	1.774382  
340.500000	1.506244  
341.000000	1.369092  
341.500000	1.336130  
342.000000	1.363419  
342.500000	1.539165  
343.000000	1.811069  
343.500000	2.153290  
344.000000	2.483920  
344.500000	2.679161  
345.000000	2.683590  
345.500000	2.569468  
346.000000	2.314659  
346.500000	2.023582  
347.000000	1.700396  
347.500000	1.383928  
348.000000	1.153784  
348.500000	1.098492  
349.000000	1.098221  
349.500000	1.112982  
350.000000	1.102649  
350.500000	1.025568  
351.000000	1.018652  
351.500000	0.971976  
352.000000	1.013177  
352.500000	0.965842  
353.000000	1.041984  
353.500000	1.165505  
354.000000	1.260786  
354.500000	1.333679  
355.000000	1.384959  
355.500000	1.424807  
356.000000	1.423630  
356.500000	1.549512  
357.000000	1.610002  
357.500000	1.645347  
358.000000	1.657084  
358.500000	1.576288  
359.000000	1.569399  
359.500000	1.656633  
360.000000	1.742418  
360.500000	1.796507  
361.000000	1.902402  
361.500000	2.016955  
362.000000	2.002807  
362.500000	1.932586  
363.000000	1.762632  
363.500000	1.590389  
364.000000	1.484668  
364.500000	1.323255  
365.000000	1.231230  
365.500000	1.269369  
366.000000	1.471284  
366.500000	1.649542  
367.000000	1.790934  
367.500000	1.918817  
368.000000	2.047312  
368.500000	2.193027  
369.000000	2.201131  
369.500000	2.125938  
370.000000	2.042369  
370.500000	2.002254  
371.000000	1.921563  
371.500000	1.810358  
372.000000	1.688096  
372.500000	1.595057  
373.000000	1.584768  
373.500000	1.498195  
374.000000	1.349453  
374.500000	1.184152  
375.000000	1.031141  
375.500000	0.887899  
376.000000	0.876222  
376.500000	0.890805  
377.000000	0.902668  
377.500000	1.040304  
378.000000	1.220595  
378.500000	1.408830  
379.000000	1.571173  
379.500000	1.719580  
380.000000	1.804264  
380.500000	1.889536  
381.000000	1.966625  
381.500000	1.962301  
382.000000	2.012325  
382.500000	2.053532  
383.000000	2.059659  
383.500000	2.085810  
384.000000	2.140246  
384.500000	2.173038  
385.000000	2.130446  
385.500000	2.044954  
386.000000	1.939965  
386.500000	1.904635  
387.000000	1.866576  
387.500000	1.874199  
388.000000	1.925368  
388.500000	2.004944  
389.000000	2.102594  
389.500000	2.133141  
390.000000	2.070788  
390.500000	1.969520  
391.000000	1.876509  
391.500000	1.737326  
392.000000	1.644489  
392.500000	1.627626  
393.000000	1.637427  
393.500000	1.664147  
394.000000	1.672702  
394.500000	1.654288  
395.000000	1.630427  
395.500000	1.597914  
396.000000	1.580353  
396.500000	1.593189  
397.000000	1.656012  
397.500000	1.703687  
398.000000	1.746060  
398.500000	1.773801  
399.000000	1.740208  
399.500000	1.664728  
400.000000	1.562967  
400.500000	1.528136  
401.000000	1.522680  
401.500000	1.534434  
402.000000	1.495221  
402.500000	1.506367  
403.000000	1.537505  
403.500000	1.513170  
404.000000	1.450609  
404.500000	1.382983  
405.000000	1.377740  
405.500000	1.417634  
406.000000	1.496441  
406.500000	1.522853  
407.000000	1.529882  
407.500000	1.534968  
408.000000	1.440155  
408.500000	1.274238  
409.000000	1.113129  
409.500000	0.964012  
410.000000	0.855523  
410.500000	0.837553  
411.000000	0.904541  
411.500000	1.004557  
412.000000	1.170985  
412.500000	1.310129  
413.000000	1.428037  
413.500000	1.524839  
414.000000	1.573158  
414.500000	1.567688  
415.000000	1.541968  
415.500000	1.579315  
416.000000	1.589188  
416.500000	1.654884  
417.000000	1.703540  
417.500000	1.737517  
418.000000	1.756346  
418.500000	1.739522  
419.000000	1.676668  
419.500000	1.576460  
420.000000	1.467614  
420.500000	1.354769  
421.000000	1.284795  
421.500000	1.242565  
422.000000	1.220025  
422.500000	1.218258  
423.000000	1.212426  
423.500000	1.202315  
424.000000	1.190240  
424.500000	1.163365  
425.000000	1.157135  
425.500000	1.161401  
426.000000	1.193840  
426.500000	1.238370  
427.000000	1.295672  
427.500000	1.372779  
428.000000	1.426964  
428.500000	1.453864  
429.000000	1.459866  
429.500000	1.492722  
430.000000	1.502217  
430.500000	1.511389  
431.000000	1.520884  
431.500000	1.515234  
432.000000	1.540300  
432.500000	1.551164  
433.000000	1.514055  
433.500000	1.467456  
434.000000	1.437037  
434.500000	1.387990  
435.000000	1.340496  
435.500000	1.304820  
436.000000	1.254275  
436.500000	1.231189  
437.000000	1.217590  
437.500000	1.178049  
438.000000	1.158498  
438.500000	1.160811  
439.000000	1.171097  
439.500000	1.190368  
440.000000	1.235963  
440.500000	1.279760  
441.000000	1.330244  
441.500000	1.379080  
442.000000	1.386256  
442.500000	1.375182  
443.000000	1.354259  
443.500000	1.342493  
444.000000	1.321621  
444.500000	1.316337  

