PE FL                   SPECTRUM    ASCII       PEDS        1.60        
  -1
PP825E~1
23/10/10
15:01:57.00
23/10/10
15:01:57.00


444.500000
1









LS55
20.00
5.00
5.00
SCAN
1
20
100
100
0
500
0
2
0
1
7
ON
500 450 
1 0 0
#HDR
-1
-1
#GR
NM

0.00002384185791015625
0.0
250.000000
0.500000
390
8
2.666292
-5.000000
#DATA
250.000000	-5.000000 
250.500000	-4.477328 
251.000000	-3.770838 
251.500000	-3.092282 
252.000000	-2.570236 
252.500000	-2.218432 
253.000000	-1.888688 
253.500000	-1.479621 
254.000000	-1.312283 
254.500000	-1.473222 
255.000000	-1.713448 
255.500000	-1.995221 
256.000000	-2.420456 
256.500000	-2.841197 
257.000000	-2.984777 
257.500000	-2.756113 
258.000000	-2.171717 
258.500000	-1.624839 
259.000000	-1.335726 
259.500000	-1.173245 
260.000000	-1.061966 
260.500000	-1.525151 
261.000000	-2.216924 
261.500000	-2.821321 
262.000000	-3.333948 
262.500000	-3.469093 
263.000000	-3.773303 
263.500000	-4.061388 
264.000000	-3.985743 
264.500000	-3.610094 
265.000000	-3.173303 
265.500000	-2.690134 
266.000000	-2.148214 
266.500000	-1.661996 
267.000000	-1.068174 
267.500000	-0.833069 
268.000000	-0.987867 
268.500000	-1.390052 
269.000000	-2.165421 
269.500000	-2.927425 
270.000000	-3.733351 
270.500000	-4.455925 
271.000000	-4.735215 
271.500000	-4.371352 
272.000000	-3.524711 
272.500000	-2.526504 
273.000000	-1.339238 
273.500000	-0.194008 
274.000000	0.945547  
274.500000	1.719603  
275.000000	1.934728  
275.500000	1.875507  
276.000000	1.565426  
276.500000	1.100935  
277.000000	0.634204  
277.500000	0.220149  
278.000000	0.067152  
278.500000	0.097429  
279.000000	0.242333  
279.500000	0.264649  
280.000000	0.432498  
280.500000	0.461546  
281.000000	0.266790  
281.500000	-0.035531 
282.000000	-0.408038 
282.500000	-0.822445 
283.000000	-1.350942 
283.500000	-1.549240 
284.000000	-1.483750 
284.500000	-0.959872 
285.000000	-0.444182 
285.500000	-0.124669 
286.000000	0.103369  
286.500000	0.260686  
287.000000	-0.060585 
287.500000	-0.596865 
288.000000	-1.084231 
288.500000	-1.645494 
289.000000	-1.843522 
289.500000	-1.641367 
290.000000	-1.177554 
290.500000	-0.578537 
291.000000	0.078204  
291.500000	0.318736  
292.000000	0.575846  
292.500000	0.734985  
293.000000	0.523233  
293.500000	0.033584  
294.000000	-0.377731 
294.500000	-0.564035 
295.000000	-0.670205 
295.500000	-0.892127 
296.000000	-1.309535 
296.500000	-1.502041 
297.000000	-1.419553 
297.500000	-1.317124 
298.000000	-1.467224 
298.500000	-1.696565 
299.000000	-1.735695 
299.500000	-1.453182 
300.000000	-1.274668 
300.500000	-1.061811 
301.000000	-0.814586 
301.500000	-0.525336 
302.000000	0.062906  
302.500000	0.796057  
303.000000	1.256851  
303.500000	1.552847  
304.000000	1.905122  
304.500000	1.837762  
305.000000	1.739153  
305.500000	1.366466  
306.000000	0.613285  
306.500000	-0.155243 
307.000000	-0.765900 
307.500000	-1.320142 
308.000000	-1.810095 
308.500000	-1.943700 
309.000000	-2.014457 
309.500000	-1.715429 
310.000000	-1.345959 
310.500000	-0.959634 
311.000000	-0.758002 
311.500000	-0.587501 
312.000000	-0.558571 
312.500000	-0.472367 
313.000000	-0.490958 
313.500000	-0.737352 
314.000000	-0.745841 
314.500000	-0.862394 
315.000000	-0.763380 
315.500000	-0.748208 
316.000000	-0.584631 
316.500000	-0.366767 
317.000000	0.039224  
317.500000	0.537657  
318.000000	0.752770  
318.500000	0.971393  
319.000000	1.069948  
319.500000	1.178050  
320.000000	0.873910  
320.500000	0.510503  
321.000000	0.064698  
321.500000	-0.332479 
322.000000	-0.475889 
322.500000	-0.499255 
323.000000	-0.480665 
323.500000	-0.271330 
324.000000	0.154658  
324.500000	0.574127  
325.000000	0.866684  
325.500000	1.025614  
326.000000	0.939967  
326.500000	0.806442  
327.000000	0.647432  
327.500000	0.222709  
328.000000	-0.275323 
328.500000	-0.672530 
329.000000	-0.851865 
329.500000	-0.953371 
330.000000	-1.018031 
330.500000	-1.002343 
331.000000	-0.867782 
331.500000	-0.515190 
332.000000	-0.149836 
332.500000	0.207104  
333.000000	0.582391  
333.500000	1.074308  
334.000000	1.619688  
334.500000	1.919848  
335.000000	2.217832  
335.500000	2.472325  
336.000000	2.666292  
336.500000	2.657092  
337.000000	2.431290  
337.500000	2.130382  
338.000000	1.702381  
338.500000	1.418882  
339.000000	1.020548  
339.500000	0.795014  
340.000000	0.773051  
340.500000	0.969860  
341.000000	1.256062  
341.500000	1.457320  
342.000000	1.538732  
342.500000	1.477182  
343.000000	1.414899  
343.500000	1.131417  
344.000000	0.866246  
344.500000	0.614805  
345.000000	0.398504  
345.500000	0.384855  
346.000000	0.422584  
346.500000	0.412159  
347.000000	0.425389  
347.500000	0.509901  
348.000000	0.592947  
348.500000	0.729092  
349.000000	0.804641  
349.500000	0.792296  
350.000000	0.926736  
350.500000	1.074945  
351.000000	1.232526  
351.500000	1.347105  
352.000000	1.404928  
352.500000	1.494340  
353.000000	1.666767  
353.500000	1.769858  
354.000000	1.659636  
354.500000	1.552252  
355.000000	1.392329  
355.500000	1.339591  
356.000000	1.255522  
356.500000	1.177053  
357.000000	1.262126  
357.500000	1.380813  
358.000000	1.501056  
358.500000	1.483880  
359.000000	1.405227  
359.500000	1.217142  
360.000000	1.051501  
360.500000	0.831119  
361.000000	0.661604  
361.500000	0.713657  
362.000000	0.789718  
362.500000	0.972963  
363.000000	1.098272  
363.500000	1.136221  
364.000000	1.142347  
364.500000	1.042654  
365.000000	0.867097  
365.500000	0.733779  
366.000000	0.817784  
366.500000	0.927740  
367.000000	1.167836  
367.500000	1.353575  
368.000000	1.516395  
368.500000	1.656752  
369.000000	1.626680  
369.500000	1.493448  
370.000000	1.270575  
370.500000	1.090893  
371.000000	0.891547  
371.500000	0.761322  
372.000000	0.655645  
372.500000	0.550054  
373.000000	0.504087  
373.500000	0.445704  
374.000000	0.415164  
374.500000	0.343680  
375.000000	0.301173  
375.500000	0.301235  
376.000000	0.311811  
376.500000	0.353419  
377.000000	0.344971  
377.500000	0.387344  
378.000000	0.466195  
378.500000	0.622343  
379.000000	0.789703  
379.500000	0.924088  
380.000000	1.056875  
380.500000	1.173685  
381.000000	1.345003  
381.500000	1.423951  
382.000000	1.442960  
382.500000	1.375027  
383.000000	1.337167  
383.500000	1.310093  
384.000000	1.240224  
384.500000	1.170210  
385.000000	1.028167  
385.500000	0.889593  
386.000000	0.757167  
386.500000	0.694527  
387.000000	0.599713  
387.500000	0.558211  
388.000000	0.610799  
388.500000	0.699405  
389.000000	0.858494  
389.500000	0.929932  
390.000000	0.866292  
390.500000	0.751681  
391.000000	0.693705  
391.500000	0.616081  
392.000000	0.534474  
392.500000	0.499841  
393.000000	0.526457  
393.500000	0.686060  
394.000000	0.873763  
394.500000	0.975379  
395.000000	0.999921  
395.500000	1.020001  
396.000000	0.989662  
396.500000	0.912043  
397.000000	0.829419  
397.500000	0.755369  
398.000000	0.728278  
398.500000	0.722640  
399.000000	0.722699  
399.500000	0.764836  
400.000000	0.847211  
400.500000	0.906330  
401.000000	0.951660  
401.500000	1.027477  
402.000000	1.090916  
402.500000	1.155878  
403.000000	1.140321  
403.500000	1.091701  
404.000000	1.073917  
404.500000	1.069381  
405.000000	1.005467  
405.500000	0.913119  
406.000000	0.868898  
406.500000	0.852182  
407.000000	0.879009  
407.500000	0.892712  
408.000000	0.934607  
408.500000	0.993178  
409.000000	1.056294  
409.500000	1.081028  
410.000000	1.054868  
410.500000	1.019619  
411.000000	0.953526  
411.500000	0.859502  
412.000000	0.776480  
412.500000	0.724546  
413.000000	0.683882  
413.500000	0.679322  
414.000000	0.685607  
414.500000	0.689560  
415.000000	0.718181  
415.500000	0.740680  
416.000000	0.733499  
416.500000	0.756515  
417.000000	0.797699  
417.500000	0.825680  
418.000000	0.895082  
418.500000	0.958525  
419.000000	0.983565  
419.500000	0.994837  
420.000000	0.988059  
420.500000	0.928448  
421.000000	0.874696  
421.500000	0.817055  
422.000000	0.744871  
422.500000	0.729640  
423.000000	0.715857  
423.500000	0.695714  
424.000000	0.699922  
424.500000	0.694034  
425.000000	0.676916  
425.500000	0.656707  
426.000000	0.653728  
426.500000	0.644195  
427.000000	0.662150  
427.500000	0.675114  
428.000000	0.673263  
428.500000	0.696997  
429.000000	0.706868  
429.500000	0.700767  
430.000000	0.689998  
430.500000	0.686817  
431.000000	0.695858  
431.500000	0.717802  
432.000000	0.736143  
432.500000	0.736249  
433.000000	0.745603  
433.500000	0.751603  
434.000000	0.771584  
434.500000	0.792654  
435.000000	0.825081  
435.500000	0.865416  
436.000000	0.909643  
436.500000	0.965542  
437.000000	1.004362  
437.500000	1.023206  
438.000000	1.026898  
438.500000	1.029234  
439.000000	1.022219  
439.500000	1.019011  
440.000000	1.012797  
440.500000	0.999777  
441.000000	0.989652  
441.500000	0.974103  
442.000000	0.943359  
442.500000	0.908412  
443.000000	0.873095  
443.500000	0.831505  
444.000000	0.804399  
444.500000	0.770694  

