PE FL                   SPECTRUM    ASCII       PEDS        1.60        
  -1
PP826E~1
23/10/10
15:02:37.00
23/10/10
15:02:37.00


444.500000
1









LS55
25.00
5.00
5.00
SCAN
1
20
100
100
0
500
0
2
0
1
7
ON
500 450 
1 0 0
#HDR
-1
-1
#GR
NM

0.00002384185791015625
0.0
250.000000
0.500000
390
8
4.214385
-3.435744
#DATA
250.000000	-1.376000 
250.500000	-1.247879 
251.000000	-1.425914 
251.500000	-0.824187 
252.000000	-0.108968 
252.500000	0.712098  
253.000000	1.464264  
253.500000	1.992977  
254.000000	1.263220  
254.500000	0.493414  
255.000000	-0.507626 
255.500000	-1.477272 
256.000000	-2.264163 
256.500000	-3.000482 
257.000000	-3.435744 
257.500000	-3.282037 
258.000000	-2.525580 
258.500000	-2.237855 
259.000000	-1.943082 
259.500000	-2.138068 
260.000000	-2.110490 
260.500000	-1.795792 
261.000000	-1.926519 
261.500000	-2.034202 
262.000000	-2.127420 
262.500000	-2.022497 
263.000000	-1.536434 
263.500000	-0.928162 
264.000000	-0.812540 
264.500000	-0.716886 
265.000000	-0.084754 
265.500000	0.249463  
266.000000	0.709242  
266.500000	0.842035  
267.000000	0.811058  
267.500000	0.775971  
268.000000	0.790567  
268.500000	0.385428  
269.000000	-0.419992 
269.500000	-1.180663 
270.000000	-2.081837 
270.500000	-2.548470 
271.000000	-2.809282 
271.500000	-2.787493 
272.000000	-2.194869 
272.500000	-1.300294 
273.000000	0.035804  
273.500000	1.292709  
274.000000	2.231497  
274.500000	2.425000  
275.000000	2.135285  
275.500000	1.582607  
276.000000	0.829045  
276.500000	0.156694  
277.000000	-0.531357 
277.500000	-0.918427 
278.000000	-0.756782 
278.500000	-0.258007 
279.000000	0.046232  
279.500000	0.209739  
280.000000	0.246015  
280.500000	-0.046624 
281.000000	-0.524770 
281.500000	-1.004889 
282.000000	-1.586462 
282.500000	-1.932244 
283.000000	-2.075114 
283.500000	-2.187198 
284.000000	-2.136096 
284.500000	-1.819798 
285.000000	-1.305279 
285.500000	-0.904372 
286.000000	-0.356562 
286.500000	-0.098183 
287.000000	0.166447  
287.500000	0.253305  
288.000000	0.433632  
288.500000	0.707455  
289.000000	1.013367  
289.500000	1.611392  
290.000000	1.974041  
290.500000	2.422467  
291.000000	2.700973  
291.500000	2.933627  
292.000000	2.943616  
292.500000	2.882044  
293.000000	2.895089  
293.500000	2.622218  
294.000000	2.575459  
294.500000	2.284648  
295.000000	2.112436  
295.500000	2.087757  
296.000000	2.270999  
296.500000	2.507657  
297.000000	2.586889  
297.500000	3.114086  
298.000000	3.615827  
298.500000	4.163260  
299.000000	4.214385  
299.500000	4.047378  
300.000000	3.578457  
300.500000	3.231923  
301.000000	2.954914  
301.500000	2.488046  
302.000000	2.385141  
302.500000	2.705980  
303.000000	3.104379  
303.500000	3.261941  
304.000000	3.403431  
304.500000	3.154736  
305.000000	2.769631  
305.500000	2.159575  
306.000000	1.429661  
306.500000	0.712627  
307.000000	0.536232  
307.500000	0.631949  
308.000000	0.959665  
308.500000	1.696295  
309.000000	2.429786  
309.500000	3.120347  
310.000000	3.372411  
310.500000	3.455983  
311.000000	3.097112  
311.500000	2.603836  
312.000000	1.872372  
312.500000	1.334728  
313.000000	1.169034  
313.500000	1.244886  
314.000000	1.536945  
314.500000	1.894204  
315.000000	2.341002  
315.500000	2.672479  
316.000000	2.756268  
316.500000	2.328455  
317.000000	1.765039  
317.500000	1.254053  
318.000000	0.709266  
318.500000	0.057777  
319.000000	-0.363926 
319.500000	-0.705135 
320.000000	-0.731380 
320.500000	-0.521670 
321.000000	-0.332614 
321.500000	-0.001154 
322.000000	0.478531  
322.500000	1.101112  
323.000000	1.503327  
323.500000	1.854088  
324.000000	1.731379  
324.500000	1.433638  
325.000000	1.145089  
325.500000	0.900804  
326.000000	0.830614  
326.500000	0.825994  
327.000000	1.028686  
327.500000	1.283248  
328.000000	1.699565  
328.500000	1.831746  
329.000000	1.823658  
329.500000	1.642864  
330.000000	1.331529  
330.500000	1.061429  
331.000000	0.733797  
331.500000	0.360771  
332.000000	-0.018778 
332.500000	-0.342963 
333.000000	-0.733346 
333.500000	-0.961286 
334.000000	-1.203397 
334.500000	-1.449062 
335.000000	-1.501934 
335.500000	-1.336880 
336.000000	-1.075649 
336.500000	-0.733271 
337.000000	-0.447103 
337.500000	-0.286314 
338.000000	-0.071411 
338.500000	0.084980  
339.000000	0.102382  
339.500000	0.044432  
340.000000	0.029265  
340.500000	0.030967  
341.000000	0.104774  
341.500000	0.217783  
342.000000	0.365327  
342.500000	0.510275  
343.000000	0.667125  
343.500000	0.748333  
344.000000	0.779301  
344.500000	0.714352  
345.000000	0.627741  
345.500000	0.470515  
346.000000	0.352803  
346.500000	0.389486  
347.000000	0.459913  
347.500000	0.582466  
348.000000	0.756273  
348.500000	0.967278  
349.000000	1.047146  
349.500000	1.159557  
350.000000	1.120724  
350.500000	1.013853  
351.000000	0.931997  
351.500000	0.857208  
352.000000	0.654412  
352.500000	0.473645  
353.000000	0.405628  
353.500000	0.254926  
354.000000	0.196071  
354.500000	0.183082  
355.000000	0.186835  
355.500000	0.241471  
356.000000	0.366520  
356.500000	0.408203  
357.000000	0.409592  
357.500000	0.430611  
358.000000	0.325322  
358.500000	0.189359  
359.000000	0.136419  
359.500000	0.084333  
360.000000	0.122153  
360.500000	0.268745  
361.000000	0.473340  
361.500000	0.705649  
362.000000	0.940686  
362.500000	1.080792  
363.000000	1.091137  
363.500000	1.117071  
364.000000	1.042691  
364.500000	0.959679  
365.000000	0.869016  
365.500000	0.768931  
366.000000	0.674839  
366.500000	0.597343  
367.000000	0.564728  
367.500000	0.407676  
368.000000	0.287233  
368.500000	0.187931  
369.000000	0.142987  
369.500000	0.177619  
370.000000	0.195636  
370.500000	0.238392  
371.000000	0.278150  
371.500000	0.414305  
372.000000	0.463396  
372.500000	0.474463  
373.000000	0.557776  
373.500000	0.655718  
374.000000	0.767754  
374.500000	0.862127  
375.000000	1.017897  
375.500000	1.108361  
376.000000	1.237001  
376.500000	1.326172  
377.000000	1.355490  
377.500000	1.423348  
378.000000	1.488394  
378.500000	1.490355  
379.000000	1.393483  
379.500000	1.363405  
380.000000	1.301463  
380.500000	1.229010  
381.000000	1.119941  
381.500000	1.018516  
382.000000	0.964024  
382.500000	0.934809  
383.000000	0.912371  
383.500000	0.827532  
384.000000	0.779241  
384.500000	0.787904  
385.000000	0.812602  
385.500000	0.825807  
386.000000	0.853984  
386.500000	0.934103  
387.000000	1.008286  
387.500000	1.105229  
388.000000	1.178814  
388.500000	1.162948  
389.000000	1.133972  
389.500000	1.105387  
390.000000	1.048718  
390.500000	0.986777  
391.000000	0.982815  
391.500000	0.986771  
392.000000	0.984637  
392.500000	0.989299  
393.000000	0.938765  
393.500000	0.863357  
394.000000	0.805458  
394.500000	0.744446  
395.000000	0.634001  
395.500000	0.577079  
396.000000	0.534729  
396.500000	0.475617  
397.000000	0.430111  
397.500000	0.447540  
398.000000	0.472662  
398.500000	0.546857  
399.000000	0.649311  
399.500000	0.695891  
400.000000	0.788940  
400.500000	0.908792  
401.000000	0.993086  
401.500000	1.033520  
402.000000	1.049465  
402.500000	1.058975  
403.000000	1.076116  
403.500000	1.097577  
404.000000	1.049283  
404.500000	1.049910  
405.000000	1.043951  
405.500000	1.028919  
406.000000	0.997703  
406.500000	0.920149  
407.000000	0.862471  
407.500000	0.849182  
408.000000	0.832219  
408.500000	0.762376  
409.000000	0.718174  
409.500000	0.697657  
410.000000	0.725348  
410.500000	0.770496  
411.000000	0.759191  
411.500000	0.744974  
412.000000	0.771148  
412.500000	0.775790  
413.000000	0.733202  
413.500000	0.663302  
414.000000	0.575472  
414.500000	0.566201  
415.000000	0.583027  
415.500000	0.573343  
416.000000	0.568407  
416.500000	0.609239  
417.000000	0.665546  
417.500000	0.715569  
418.000000	0.726154  
418.500000	0.691183  
419.000000	0.686063  
419.500000	0.701023  
420.000000	0.720791  
420.500000	0.723762  
421.000000	0.739385  
421.500000	0.783922  
422.000000	0.836850  
422.500000	0.876091  
423.000000	0.865321  
423.500000	0.835853  
424.000000	0.792909  
424.500000	0.748104  
425.000000	0.689796  
425.500000	0.612137  
426.000000	0.553594  
426.500000	0.510107  
427.000000	0.483274  
427.500000	0.478267  
428.000000	0.512256  
428.500000	0.564326  
429.000000	0.633703  
429.500000	0.707086  
430.000000	0.749949  
430.500000	0.770429  
431.000000	0.766637  
431.500000	0.735167  
432.000000	0.684226  
432.500000	0.659621  
433.000000	0.655280  
433.500000	0.667961  
434.000000	0.704062  
434.500000	0.748308  
435.000000	0.794594  
435.500000	0.831225  
436.000000	0.831648  
436.500000	0.779580  
437.000000	0.736974  
437.500000	0.700041  
438.000000	0.652614  
438.500000	0.614749  
439.000000	0.597323  
439.500000	0.587822  
440.000000	0.593029  
440.500000	0.600618  
441.000000	0.580951  
441.500000	0.587602  
442.000000	0.609542  
442.500000	0.616116  
443.000000	0.629016  
443.500000	0.656203  
444.000000	0.687467  
444.500000	0.709166  

