PE FL                   SPECTRUM    ASCII       PEDS        1.60        
  -1
PP828E~1
23/10/10
15:03:58.00
23/10/10
15:03:58.00


444.500000
1









LS55
35.00
5.00
5.00
SCAN
1
20
100
100
0
500
0
2
0
1
7
ON
500 450 
1 0 0
#HDR
-1
-1
#GR
NM

0.00002384185791015625
0.0
250.000000
0.500000
390
8
3.856686
-3.726617
#DATA
250.000000	1.394000  
250.500000	-0.073049 
251.000000	-1.443169 
251.500000	-2.471344 
252.000000	-2.876748 
252.500000	-2.987736 
253.000000	-2.689586 
253.500000	-2.428284 
254.000000	-2.058601 
254.500000	-1.804382 
255.000000	-2.091619 
255.500000	-2.636912 
256.000000	-3.188359 
256.500000	-3.548746 
257.000000	-3.726617 
257.500000	-3.659373 
258.000000	-3.582250 
258.500000	-3.187220 
259.000000	-2.424235 
259.500000	-2.033115 
260.000000	-1.861546 
260.500000	-1.801459 
261.000000	-1.867872 
261.500000	-2.052786 
262.000000	-2.398302 
262.500000	-2.877893 
263.000000	-3.187123 
263.500000	-3.236884 
264.000000	-3.550069 
264.500000	-3.677269 
265.000000	-3.627323 
265.500000	-3.465255 
266.000000	-3.257471 
266.500000	-3.216851 
267.000000	-3.233605 
267.500000	-3.175935 
268.000000	-3.196545 
268.500000	-3.415246 
269.000000	-3.525842 
269.500000	-3.442171 
270.000000	-3.263636 
270.500000	-3.185182 
271.000000	-3.179623 
271.500000	-3.131328 
272.000000	-2.840511 
272.500000	-2.642346 
273.000000	-2.570348 
273.500000	-2.509410 
274.000000	-2.507885 
274.500000	-2.466969 
275.000000	-2.761314 
275.500000	-2.903164 
276.000000	-3.002115 
276.500000	-2.912771 
277.000000	-2.796269 
277.500000	-2.645845 
278.000000	-2.636996 
278.500000	-2.467289 
279.000000	-2.192751 
279.500000	-2.120114 
280.000000	-1.986028 
280.500000	-1.904090 
281.000000	-1.588242 
281.500000	-1.117549 
282.000000	-0.514618 
282.500000	-0.207031 
283.000000	0.172097  
283.500000	0.468805  
284.000000	0.863946  
284.500000	0.974941  
285.000000	0.761998  
285.500000	0.672007  
286.000000	0.652124  
286.500000	0.604695  
287.000000	0.081633  
287.500000	-0.412389 
288.000000	-1.073671 
288.500000	-1.327028 
289.000000	-1.510548 
289.500000	-1.717386 
290.000000	-1.434140 
290.500000	-0.803085 
291.000000	-0.184480 
291.500000	0.294702  
292.000000	0.583936  
292.500000	0.662242  
293.000000	0.502943  
293.500000	-0.069147 
294.000000	-0.866816 
294.500000	-1.491676 
295.000000	-1.853723 
295.500000	-2.043776 
296.000000	-2.023417 
296.500000	-1.615903 
297.000000	-0.791248 
297.500000	-0.082619 
298.000000	0.500210  
298.500000	1.068632  
299.000000	1.679320  
299.500000	2.113995  
300.000000	2.349615  
300.500000	2.295418  
301.000000	2.183843  
301.500000	2.126720  
302.000000	1.766207  
302.500000	1.334458  
303.000000	1.121905  
303.500000	1.123535  
304.000000	0.956153  
304.500000	0.605527  
305.000000	0.104542  
305.500000	-0.131173 
306.000000	-0.183792 
306.500000	-0.266384 
307.000000	-0.180315 
307.500000	0.199149  
308.000000	0.949389  
308.500000	1.848093  
309.000000	2.562347  
309.500000	3.091594  
310.000000	3.578819  
310.500000	3.856686  
311.000000	3.843840  
311.500000	3.717200  
312.000000	3.505767  
312.500000	3.344308  
313.000000	3.304096  
313.500000	3.124336  
314.000000	2.866067  
314.500000	2.587571  
315.000000	2.262347  
315.500000	1.905547  
316.000000	1.700028  
316.500000	1.719434  
317.000000	1.822204  
317.500000	2.172700  
318.000000	2.464117  
318.500000	2.735527  
319.000000	2.901773  
319.500000	3.006813  
320.000000	2.880239  
320.500000	2.494589  
321.000000	2.084925  
321.500000	1.541959  
322.000000	1.432432  
322.500000	1.455939  
323.000000	1.759413  
323.500000	2.135998  
324.000000	2.602403  
324.500000	2.997741  
325.000000	3.149149  
325.500000	3.030939  
326.000000	2.468952  
326.500000	2.266235  
327.000000	2.092045  
327.500000	2.235706  
328.000000	2.457486  
328.500000	2.842220  
329.000000	3.210375  
329.500000	3.529138  
330.000000	3.471916  
330.500000	3.057262  
331.000000	2.636453  
331.500000	2.021326  
332.000000	1.586008  
332.500000	1.286339  
333.000000	1.189933  
333.500000	1.241551  
334.000000	1.549732  
334.500000	1.826843  
335.000000	2.076693  
335.500000	2.357999  
336.000000	2.532271  
336.500000	2.690116  
337.000000	2.870404  
337.500000	2.984048  
338.000000	2.868181  
338.500000	2.681601  
339.000000	2.350357  
339.500000	1.991054  
340.000000	1.647122  
340.500000	1.240274  
341.000000	0.806058  
341.500000	0.576507  
342.000000	0.530773  
342.500000	0.479101  
343.000000	0.624910  
343.500000	0.876318  
344.000000	1.165939  
344.500000	1.542295  
345.000000	1.830844  
345.500000	1.868120  
346.000000	1.744189  
346.500000	1.524906  
347.000000	1.150477  
347.500000	0.921779  
348.000000	0.746654  
348.500000	0.662256  
349.000000	0.770476  
349.500000	1.061325  
350.000000	1.403416  
350.500000	1.714938  
351.000000	1.984386  
351.500000	2.047282  
352.000000	2.006939  
352.500000	1.822572  
353.000000	1.574272  
353.500000	1.324185  
354.000000	1.058738  
354.500000	0.882020  
355.000000	0.612981  
355.500000	0.414597  
356.000000	0.252175  
356.500000	0.091853  
357.000000	-0.132075 
357.500000	-0.344099 
358.000000	-0.495130 
358.500000	-0.612570 
359.000000	-0.528309 
359.500000	-0.462951 
360.000000	-0.221305 
360.500000	0.080016  
361.000000	0.398795  
361.500000	0.611428  
362.000000	0.744452  
362.500000	0.767626  
363.000000	0.619507  
363.500000	0.500868  
364.000000	0.391219  
364.500000	0.364600  
365.000000	0.403984  
365.500000	0.552855  
366.000000	0.703217  
366.500000	0.867744  
367.000000	0.977799  
367.500000	0.959610  
368.000000	0.811517  
368.500000	0.661083  
369.000000	0.478276  
369.500000	0.295879  
370.000000	0.228414  
370.500000	0.204777  
371.000000	0.221024  
371.500000	0.300109  
372.000000	0.406784  
372.500000	0.488148  
373.000000	0.574359  
373.500000	0.566303  
374.000000	0.511297  
374.500000	0.486766  
375.000000	0.420022  
375.500000	0.363447  
376.000000	0.304282  
376.500000	0.284950  
377.000000	0.359362  
377.500000	0.435486  
378.000000	0.533639  
378.500000	0.654222  
379.000000	0.826144  
379.500000	0.982027  
380.000000	1.122572  
380.500000	1.189608  
381.000000	1.211707  
381.500000	1.237701  
382.000000	1.197176  
382.500000	1.113554  
383.000000	1.050921  
383.500000	0.966636  
384.000000	0.868871  
384.500000	0.823616  
385.000000	0.814165  
385.500000	0.795255  
386.000000	0.783381  
386.500000	0.761144  
387.000000	0.697403  
387.500000	0.702957  
388.000000	0.680099  
388.500000	0.618259  
389.000000	0.585191  
389.500000	0.626357  
390.000000	0.686833  
390.500000	0.727655  
391.000000	0.776275  
391.500000	0.741926  
392.000000	0.753914  
392.500000	0.774711  
393.000000	0.718831  
393.500000	0.631093  
394.000000	0.585340  
394.500000	0.557192  
395.000000	0.557434  
395.500000	0.587116  
396.000000	0.606707  
396.500000	0.617455  
397.000000	0.644456  
397.500000	0.666313  
398.000000	0.667622  
398.500000	0.659190  
399.000000	0.664244  
399.500000	0.717718  
400.000000	0.792058  
400.500000	0.897603  
401.000000	0.948726  
401.500000	0.949119  
402.000000	0.899211  
402.500000	0.809967  
403.000000	0.640217  
403.500000	0.420430  
404.000000	0.246785  
404.500000	0.088623  
405.000000	0.063739  
405.500000	0.109427  
406.000000	0.217598  
406.500000	0.328661  
407.000000	0.453129  
407.500000	0.540311  
408.000000	0.579307  
408.500000	0.600256  
409.000000	0.534908  
409.500000	0.455391  
410.000000	0.366954  
410.500000	0.330723  
411.000000	0.296969  
411.500000	0.270332  
412.000000	0.270840  
412.500000	0.305004  
413.000000	0.371976  
413.500000	0.433413  
414.000000	0.477315  
414.500000	0.505190  
415.000000	0.545206  
415.500000	0.595032  
416.000000	0.615464  
416.500000	0.642775  
417.000000	0.672067  
417.500000	0.691632  
418.000000	0.725347  
418.500000	0.722316  
419.000000	0.711925  
419.500000	0.657770  
420.000000	0.623738  
420.500000	0.559295  
421.000000	0.505585  
421.500000	0.482562  
422.000000	0.470453  
422.500000	0.504660  
423.000000	0.519087  
423.500000	0.561778  
424.000000	0.573786  
424.500000	0.598058  
425.000000	0.627527  
425.500000	0.638237  
426.000000	0.657011  
426.500000	0.657099  
427.000000	0.678017  
427.500000	0.648080  
428.000000	0.604017  
428.500000	0.518918  
429.000000	0.420201  
429.500000	0.333777  
430.000000	0.243705  
430.500000	0.206561  
431.000000	0.196243  
431.500000	0.245897  
432.000000	0.313056  
432.500000	0.393061  
433.000000	0.471195  
433.500000	0.523390  
434.000000	0.557753  
434.500000	0.553648  
435.000000	0.550428  
435.500000	0.542777  
436.000000	0.542546  
436.500000	0.533528  
437.000000	0.528129  
437.500000	0.520281  
438.000000	0.498236  
438.500000	0.472963  
439.000000	0.441155  
439.500000	0.431059  
440.000000	0.426439  
440.500000	0.447820  
441.000000	0.468027  
441.500000	0.506777  
442.000000	0.536879  
442.500000	0.544488  
443.000000	0.519997  
443.500000	0.467080  
444.000000	0.412503  
444.500000	0.358938  

