PE FL                   SPECTRUM    ASCII       PEDS        1.60        
  -1
PP82AE~1
23/10/10
15:05:19.00
23/10/10
15:05:19.00


444.500000
1









LS55
45.00
5.00
5.00
SCAN
1
20
100
100
0
500
0
2
0
1
7
ON
500 450 
1 0 0
#HDR
-1
-1
#GR
NM

0.00002384185791015625
0.0
250.000000
0.500000
390
8
4.873394
-4.999999
#DATA
250.000000	-4.999999 
250.500000	-4.675872 
251.000000	-4.545693 
251.500000	-4.537418 
252.000000	-4.668081 
252.500000	-4.622615 
253.000000	-4.496966 
253.500000	-4.260289 
254.000000	-4.094034 
254.500000	-3.524893 
255.000000	-2.708356 
255.500000	-2.039535 
256.000000	-1.662923 
256.500000	-1.534804 
257.000000	-1.625767 
257.500000	-1.484299 
258.000000	-1.334695 
258.500000	-1.476634 
259.000000	-1.424274 
259.500000	-0.863392 
260.000000	-0.128429 
260.500000	0.400376  
261.000000	0.771723  
261.500000	0.575908  
262.000000	0.255748  
262.500000	-0.151710 
263.000000	-1.015088 
263.500000	-2.129679 
264.000000	-2.995216 
264.500000	-3.795657 
265.000000	-4.352136 
265.500000	-4.511815 
266.000000	-4.410624 
266.500000	-4.078009 
267.000000	-3.195748 
267.500000	-2.004789 
268.000000	-0.935386 
268.500000	0.106913  
269.000000	0.591578  
269.500000	0.828394  
270.000000	0.531232  
270.500000	0.041887  
271.000000	-0.949119 
271.500000	-1.941279 
272.000000	-2.558865 
272.500000	-2.950413 
273.000000	-3.141776 
273.500000	-3.216929 
274.000000	-2.847280 
274.500000	-2.409825 
275.000000	-1.770809 
275.500000	-1.228378 
276.000000	-0.897356 
276.500000	-0.404017 
277.000000	-0.028688 
277.500000	0.026641  
278.000000	-0.037783 
278.500000	-0.147381 
279.000000	-0.322092 
279.500000	-0.382520 
280.000000	-0.203245 
280.500000	-0.321811 
281.000000	-0.251395 
281.500000	-0.174164 
282.000000	-0.345104 
282.500000	-0.436366 
283.000000	-0.421403 
283.500000	-0.368948 
284.000000	-0.248861 
284.500000	0.114356  
285.000000	0.503951  
285.500000	1.084356  
286.000000	1.527485  
286.500000	1.522480  
287.000000	1.480783  
287.500000	1.491995  
288.000000	1.512166  
288.500000	1.296643  
289.000000	0.848518  
289.500000	0.386581  
290.000000	0.302945  
290.500000	0.466570  
291.000000	0.180227  
291.500000	-0.136185 
292.000000	-0.069268 
292.500000	0.292561  
293.000000	0.783264  
293.500000	0.938309  
294.000000	0.760418  
294.500000	0.727239  
295.000000	0.667207  
295.500000	0.038871  
296.000000	-0.715965 
296.500000	-0.937823 
297.000000	-0.974239 
297.500000	-0.636256 
298.000000	0.234475  
298.500000	1.025540  
299.000000	2.180361  
299.500000	3.092511  
300.000000	3.829366  
300.500000	4.193371  
301.000000	4.737980  
301.500000	4.873394  
302.000000	4.599227  
302.500000	4.271619  
303.000000	3.615648  
303.500000	3.100468  
304.000000	2.161945  
304.500000	1.016651  
305.000000	-0.117625 
305.500000	-0.768891 
306.000000	-0.853281 
306.500000	-0.736243 
307.000000	-0.494660 
307.500000	-0.026663 
308.000000	0.828739  
308.500000	1.654294  
309.000000	2.293058  
309.500000	2.741965  
310.000000	2.855705  
310.500000	3.040008  
311.000000	3.175176  
311.500000	2.815897  
312.000000	2.429422  
312.500000	1.774431  
313.000000	1.309297  
313.500000	0.739864  
314.000000	0.385046  
314.500000	0.003443  
315.000000	0.055764  
315.500000	0.350146  
316.000000	0.445198  
316.500000	0.638384  
317.000000	0.431116  
317.500000	0.146928  
318.000000	-0.195502 
318.500000	-0.428328 
319.000000	-0.711674 
319.500000	-0.776096 
320.000000	-0.541498 
320.500000	-0.207066 
321.000000	0.467108  
321.500000	1.032336  
322.000000	1.702832  
322.500000	2.149964  
323.000000	2.557870  
323.500000	2.761442  
324.000000	2.750837  
324.500000	2.619134  
325.000000	2.299161  
325.500000	1.760014  
326.000000	1.127498  
326.500000	0.696789  
327.000000	0.099505  
327.500000	-0.199232 
328.000000	-0.190070 
328.500000	-0.096618 
329.000000	0.090858  
329.500000	0.209780  
330.000000	0.170164  
330.500000	0.018228  
331.000000	0.080514  
331.500000	-0.159889 
332.000000	-0.392120 
332.500000	-0.474366 
333.000000	-0.470859 
333.500000	-0.265716 
334.000000	-0.075359 
334.500000	0.220418  
335.000000	0.436718  
335.500000	0.754253  
336.000000	0.863218  
336.500000	0.874330  
337.000000	0.965605  
337.500000	1.002594  
338.000000	1.121439  
338.500000	1.171176  
339.000000	1.325418  
339.500000	1.381194  
340.000000	1.398366  
340.500000	1.393039  
341.000000	1.333792  
341.500000	1.438582  
342.000000	1.449082  
342.500000	1.496812  
343.000000	1.567280  
343.500000	1.657875  
344.000000	1.669063  
344.500000	1.568790  
345.000000	1.389872  
345.500000	1.152114  
346.000000	1.001582  
346.500000	0.857096  
347.000000	0.717857  
347.500000	0.675185  
348.000000	0.644618  
348.500000	0.660410  
349.000000	0.615018  
349.500000	0.569601  
350.000000	0.499564  
350.500000	0.408427  
351.000000	0.363954  
351.500000	0.443736  
352.000000	0.549496  
352.500000	0.588005  
353.000000	0.641665  
353.500000	0.685580  
354.000000	0.799274  
354.500000	0.930789  
355.000000	1.030442  
355.500000	1.211036  
356.000000	1.476616  
356.500000	1.697258  
357.000000	1.813030  
357.500000	1.962502  
358.000000	2.045586  
358.500000	2.185789  
359.000000	2.232755  
359.500000	2.176126  
360.000000	2.065954  
360.500000	1.999476  
361.000000	1.829990  
361.500000	1.573242  
362.000000	1.383905  
362.500000	1.205937  
363.000000	1.149907  
363.500000	1.191487  
364.000000	1.298763  
364.500000	1.550106  
365.000000	1.914800  
365.500000	2.200802  
366.000000	2.415761  
366.500000	2.596668  
367.000000	2.727815  
367.500000	2.823130  
368.000000	2.901883  
368.500000	2.930898  
369.000000	2.961396  
369.500000	2.992803  
370.000000	2.952591  
370.500000	2.921370  
371.000000	2.880285  
371.500000	2.902780  
372.000000	2.923643  
372.500000	2.947553  
373.000000	2.942591  
373.500000	2.969529  
374.000000	2.957570  
374.500000	2.871572  
375.000000	2.738483  
375.500000	2.566685  
376.000000	2.437654  
376.500000	2.363293  
377.000000	2.350632  
377.500000	2.365287  
378.000000	2.383528  
378.500000	2.443557  
379.000000	2.509187  
379.500000	2.519317  
380.000000	2.488576  
380.500000	2.455667  
381.000000	2.419372  
381.500000	2.381095  
382.000000	2.363731  
382.500000	2.290627  
383.000000	2.191695  
383.500000	2.114797  
384.000000	1.958461  
384.500000	1.741558  
385.000000	1.457718  
385.500000	1.166820  
386.000000	0.882847  
386.500000	0.741359  
387.000000	0.671993  
387.500000	0.680463  
388.000000	0.806542  
388.500000	0.970298  
389.000000	1.164892  
389.500000	1.285872  
390.000000	1.347963  
390.500000	1.313832  
391.000000	1.274893  
391.500000	1.239983  
392.000000	1.230146  
392.500000	1.219422  
393.000000	1.243126  
393.500000	1.311253  
394.000000	1.371413  
394.500000	1.418983  
395.000000	1.442514  
395.500000	1.436239  
396.000000	1.361361  
396.500000	1.309184  
397.000000	1.156770  
397.500000	1.017495  
398.000000	0.866599  
398.500000	0.727986  
399.000000	0.602783  
399.500000	0.528722  
400.000000	0.499856  
400.500000	0.462690  
401.000000	0.497923  
401.500000	0.494289  
402.000000	0.545839  
402.500000	0.592524  
403.000000	0.632863  
403.500000	0.649607  
404.000000	0.664046  
404.500000	0.684906  
405.000000	0.686443  
405.500000	0.661999  
406.000000	0.625473  
406.500000	0.654406  
407.000000	0.718879  
407.500000	0.813943  
408.000000	0.893017  
408.500000	0.932878  
409.000000	0.937109  
409.500000	0.913415  
410.000000	0.825127  
410.500000	0.707993  
411.000000	0.588629  
411.500000	0.496834  
412.000000	0.449632  
412.500000	0.456063  
413.000000	0.473799  
413.500000	0.498475  
414.000000	0.544193  
414.500000	0.594903  
415.000000	0.649342  
415.500000	0.669827  
416.000000	0.691542  
416.500000	0.691994  
417.000000	0.719043  
417.500000	0.695599  
418.000000	0.663600  
418.500000	0.605760  
419.000000	0.554269  
419.500000	0.503510  
420.000000	0.445000  
420.500000	0.419039  
421.000000	0.393406  
421.500000	0.435206  
422.000000	0.466190  
422.500000	0.515731  
423.000000	0.580956  
423.500000	0.641524  
424.000000	0.671803  
424.500000	0.672737  
425.000000	0.668875  
425.500000	0.628505  
426.000000	0.609702  
426.500000	0.560304  
427.000000	0.505288  
427.500000	0.470888  
428.000000	0.471216  
428.500000	0.495731  
429.000000	0.524334  
429.500000	0.584073  
430.000000	0.634619  
430.500000	0.683124  
431.000000	0.708952  
431.500000	0.678464  
432.000000	0.614439  
432.500000	0.542253  
433.000000	0.477598  
433.500000	0.416763  
434.000000	0.396451  
434.500000	0.410464  
435.000000	0.446927  
435.500000	0.504022  
436.000000	0.538917  
436.500000	0.534399  
437.000000	0.508511  
437.500000	0.458310  
438.000000	0.396382  
438.500000	0.329465  
439.000000	0.288417  
439.500000	0.269288  
440.000000	0.303754  
440.500000	0.351441  
441.000000	0.394820  
441.500000	0.451434  
442.000000	0.488104  
442.500000	0.523942  
443.000000	0.538092  
443.500000	0.543590  
444.000000	0.530999  
444.500000	0.529262  

