PE FL                   SPECTRUM    ASCII       PEDS        1.60        
  -1
PM07F7~1
23/10/10
16:57:43.00
23/10/10
16:57:43.00


444.500000
1









LS55
50.00
5.00
5.00
SCAN
1
20
100
100
0
500
0
2
0
1
7
ON
500 450 
1 0 0
#HDR
-1
-1
#GR
NM

0.00002384185791015625
0.0
300.000000
0.500000
290
8
40.396414
0.729244
#DATA
300.000000	22.598000 
300.500000	23.285826 
301.000000	23.926595 
301.500000	24.952467 
302.000000	25.285394 
302.500000	25.568001 
303.000000	25.842046 
303.500000	26.117563 
304.000000	26.044596 
304.500000	25.940679 
305.000000	26.064956 
305.500000	26.341853 
306.000000	27.373898 
306.500000	27.660041 
307.000000	28.109562 
307.500000	28.360975 
308.000000	28.272357 
308.500000	27.956691 
309.000000	27.193951 
309.500000	26.340564 
310.000000	26.123446 
310.500000	26.637090 
311.000000	26.855388 
311.500000	27.560292 
312.000000	28.406308 
312.500000	29.316963 
313.000000	30.098352 
313.500000	30.422682 
314.000000	30.145065 
314.500000	30.113643 
315.000000	30.245613 
315.500000	30.012271 
316.000000	29.725141 
316.500000	29.302100 
317.000000	29.081852 
317.500000	28.473758 
318.000000	27.713747 
318.500000	26.579283 
319.000000	25.696127 
319.500000	25.185978 
320.000000	25.141793 
320.500000	25.389183 
321.000000	26.012020 
321.500000	27.159994 
322.000000	27.920185 
322.500000	28.368980 
323.000000	28.628672 
323.500000	28.344347 
324.000000	27.546600 
324.500000	26.475107 
325.000000	25.134578 
325.500000	23.773378 
326.000000	22.605808 
326.500000	21.571292 
327.000000	20.817581 
327.500000	20.720920 
328.000000	20.988510 
328.500000	21.385222 
329.000000	21.894821 
329.500000	22.418806 
330.000000	22.833518 
330.500000	22.694725 
331.000000	22.162676 
331.500000	21.307945 
332.000000	20.476675 
332.500000	19.547587 
333.000000	18.562171 
333.500000	17.787087 
334.000000	17.409726 
334.500000	17.256043 
335.000000	17.033449 
335.500000	16.871155 
336.000000	16.721334 
336.500000	16.823935 
337.000000	16.975345 
337.500000	17.303033 
338.000000	17.805904 
338.500000	18.798910 
339.000000	20.015833 
339.500000	21.441135 
340.000000	23.341709 
340.500000	25.471804 
341.000000	27.651370 
341.500000	29.795812 
342.000000	32.017410 
342.500000	34.096414 
343.000000	36.115280 
343.500000	37.712678 
344.000000	38.906433 
344.500000	39.767655 
345.000000	40.342005 
345.500000	40.396414 
346.000000	40.009443 
346.500000	39.481448 
347.000000	38.649680 
347.500000	37.319602 
348.000000	35.613467 
348.500000	33.705532 
349.000000	31.444604 
349.500000	28.920881 
350.000000	26.092781 
350.500000	23.240089 
351.000000	20.654921 
351.500000	18.493878 
352.000000	16.289488 
352.500000	14.430587 
353.000000	13.046354 
353.500000	11.851576 
354.000000	10.679469 
354.500000	9.656003  
355.000000	8.703437  
355.500000	7.883067  
356.000000	7.313862  
356.500000	6.638099  
357.000000	6.139323  
357.500000	5.722327  
358.000000	5.375083  
358.500000	4.895819  
359.000000	4.403651  
359.500000	3.924659  
360.000000	3.357220  
360.500000	2.837970  
361.000000	2.352077  
361.500000	2.130715  
362.000000	2.050629  
362.500000	2.124339  
363.000000	2.261668  
363.500000	2.409178  
364.000000	2.685736  
364.500000	2.861140  
365.000000	2.923949  
365.500000	2.905142  
366.000000	2.899217  
366.500000	2.818034  
367.000000	2.664707  
367.500000	2.519491  
368.000000	2.355489  
368.500000	2.302154  
369.000000	2.267531  
369.500000	2.206766  
370.000000	2.275246  
370.500000	2.412468  
371.000000	2.578520  
371.500000	2.711726  
372.000000	2.856448  
372.500000	3.009115  
373.000000	3.095154  
373.500000	3.141059  
374.000000	3.023115  
374.500000	2.964377  
375.000000	2.866871  
375.500000	2.722734  
376.000000	2.555467  
376.500000	2.378508  
377.000000	2.316744  
377.500000	2.333724  
378.000000	2.408493  
378.500000	2.477533  
379.000000	2.692680  
379.500000	2.899001  
380.000000	3.086010  
380.500000	3.258041  
381.000000	3.271241  
381.500000	3.250110  
382.000000	3.201616  
382.500000	3.014466  
383.000000	2.802399  
383.500000	2.663361  
384.000000	2.530381  
384.500000	2.466187  
385.000000	2.534788  
385.500000	2.523530  
386.000000	2.537354  
386.500000	2.690963  
387.000000	2.742241  
387.500000	2.785791  
388.000000	2.835871  
388.500000	2.815284  
389.000000	2.754697  
389.500000	2.755423  
390.000000	2.693610  
390.500000	2.610623  
391.000000	2.642728  
391.500000	2.616802  
392.000000	2.525524  
392.500000	2.451664  
393.000000	2.398296  
393.500000	2.325789  
394.000000	2.297558  
394.500000	2.294798  
395.000000	2.279669  
395.500000	2.315453  
396.000000	2.323598  
396.500000	2.285357  
397.000000	2.205431  
397.500000	2.144739  
398.000000	2.043308  
398.500000	1.949581  
399.000000	1.900417  
399.500000	1.867607  
400.000000	1.894876  
400.500000	1.966885  
401.000000	2.068187  
401.500000	2.121193  
402.000000	2.168839  
402.500000	2.173167  
403.000000	2.180746  
403.500000	2.181428  
404.000000	2.130244  
404.500000	2.040329  
405.000000	1.963566  
405.500000	1.930220  
406.000000	1.886253  
406.500000	1.868322  
407.000000	1.851422  
407.500000	1.870775  
408.000000	1.880936  
408.500000	1.854380  
409.000000	1.766949  
409.500000	1.689797  
410.000000	1.619796  
410.500000	1.569872  
411.000000	1.546123  
411.500000	1.561575  
412.000000	1.608301  
412.500000	1.671060  
413.000000	1.738807  
413.500000	1.778714  
414.000000	1.813631  
414.500000	1.822816  
415.000000	1.829460  
415.500000	1.799452  
416.000000	1.792880  
416.500000	1.752248  
417.000000	1.681410  
417.500000	1.586741  
418.000000	1.491643  
418.500000	1.386195  
419.000000	1.278854  
419.500000	1.191410  
420.000000	1.098743  
420.500000	1.073410  
421.000000	1.053548  
421.500000	1.055349  
422.000000	1.059335  
422.500000	1.071751  
423.000000	1.077560  
423.500000	1.088921  
424.000000	1.108680  
424.500000	1.107958  
425.000000	1.104075  
425.500000	1.094973  
426.000000	1.097671  
426.500000	1.067100  
427.000000	1.043650  
427.500000	0.997294  
428.000000	0.948804  
428.500000	0.907828  
429.000000	0.875355  
429.500000	0.828027  
430.000000	0.789884  
430.500000	0.798073  
431.000000	0.804443  
431.500000	0.844637  
432.000000	0.876341  
432.500000	0.887755  
433.000000	0.911147  
433.500000	0.952557  
434.000000	0.962536  
434.500000	0.968569  
435.000000	0.974389  
435.500000	0.967453  
436.000000	0.989106  
436.500000	1.002047  
437.000000	0.989365  
437.500000	0.950325  
438.000000	0.908531  
438.500000	0.859545  
439.000000	0.820442  
439.500000	0.795962  
440.000000	0.768812  
440.500000	0.774318  
441.000000	0.799703  
441.500000	0.829873  
442.000000	0.830682  
442.500000	0.801701  
443.000000	0.769568  
443.500000	0.742797  
444.000000	0.733397  
444.500000	0.729244  

