PE FL                   SPECTRUM    ASCII       PEDS        1.60        
  -1
PM67E7~1
23/10/10
16:55:26.00
23/10/10
16:55:26.00


444.500000
1









LS55
30.00
5.00
5.00
SCAN
1
20
100
100
0
500
0
2
0
1
7
ON
500 450 
1 0 0
#HDR
-1
-1
#GR
NM

0.00002384185791015625
0.0
300.000000
0.500000
290
8
77.645166
-2.802505
#DATA
300.000000	1.038000  
300.500000	-0.112894 
301.000000	-1.084564 
301.500000	-2.164433 
302.000000	-2.776622 
302.500000	-2.802505 
303.000000	-2.677813 
303.500000	-2.648449 
304.000000	-2.585836 
304.500000	-2.448969 
305.000000	-2.110095 
305.500000	-1.790515 
306.000000	-1.683037 
306.500000	-1.629312 
307.000000	-1.341263 
307.500000	-0.930549 
308.000000	-0.657194 
308.500000	-0.686268 
309.000000	-0.786452 
309.500000	-0.821195 
310.000000	-0.635064 
310.500000	-0.328320 
311.000000	0.132928  
311.500000	0.917662  
312.000000	2.128049  
312.500000	3.786122  
313.000000	5.506717  
313.500000	7.289051  
314.000000	8.820266  
314.500000	10.299089 
315.000000	11.543167 
315.500000	12.508151 
316.000000	13.233611 
316.500000	13.696628 
317.000000	14.321451 
317.500000	14.997111 
318.000000	15.828234 
318.500000	16.555916 
319.000000	17.596219 
319.500000	18.854170 
320.000000	20.167089 
320.500000	21.829068 
321.000000	23.483892 
321.500000	25.346263 
322.000000	27.070157 
322.500000	28.529118 
323.000000	29.647900 
323.500000	30.330901 
324.000000	30.663837 
324.500000	30.332353 
325.000000	29.929649 
325.500000	29.496684 
326.000000	29.476582 
326.500000	29.826716 
327.000000	30.405698 
327.500000	31.246499 
328.000000	32.079451 
328.500000	32.824712 
329.000000	33.182098 
329.500000	33.380827 
330.000000	33.072925 
330.500000	32.718059 
331.000000	32.707029 
331.500000	32.912912 
332.000000	33.192513 
332.500000	33.374388 
333.000000	33.545032 
333.500000	33.604367 
334.000000	33.496900 
334.500000	32.790864 
335.000000	31.751819 
335.500000	30.893596 
336.000000	30.545362 
336.500000	30.418408 
337.000000	30.312232 
337.500000	31.111620 
338.000000	32.640183 
338.500000	34.901005 
339.000000	37.662703 
339.500000	41.027826 
340.000000	45.084464 
340.500000	49.980493 
341.000000	55.007875 
341.500000	59.314651 
342.000000	63.781627 
342.500000	67.992613 
343.000000	71.487275 
343.500000	73.995339 
344.000000	75.854506 
344.500000	77.011699 
345.000000	77.645166 
345.500000	77.561981 
346.000000	76.278783 
346.500000	74.589889 
347.000000	72.692706 
347.500000	70.352196 
348.000000	67.148179 
348.500000	63.845321 
349.000000	60.206075 
349.500000	56.260908 
350.000000	52.076066 
350.500000	47.627179 
351.000000	43.063795 
351.500000	38.865529 
352.000000	35.000453 
352.500000	30.981178 
353.000000	27.447842 
353.500000	24.235482 
354.000000	21.163738 
354.500000	18.237704 
355.000000	15.585110 
355.500000	13.100194 
356.000000	11.102375 
356.500000	9.668035  
357.000000	8.343787  
357.500000	7.399137  
358.000000	6.716254  
358.500000	6.081062  
359.000000	5.445821  
359.500000	4.879986  
360.000000	4.280928  
360.500000	3.677776  
361.000000	3.283993  
361.500000	2.903979  
362.000000	2.576799  
362.500000	2.437805  
363.000000	2.309639  
363.500000	2.189725  
364.000000	2.077227  
364.500000	2.028274  
365.000000	2.051862  
365.500000	2.144905  
366.000000	2.173539  
366.500000	2.162496  
367.000000	2.161800  
367.500000	2.035914  
368.000000	1.789119  
368.500000	1.427506  
369.000000	1.112773  
369.500000	0.932059  
370.000000	0.886464  
370.500000	0.918598  
371.000000	1.119817  
371.500000	1.453058  
372.000000	1.785547  
372.500000	2.019101  
373.000000	2.100549  
373.500000	2.055643  
374.000000	1.980124  
374.500000	1.888304  
375.000000	1.689980  
375.500000	1.572277  
376.000000	1.543919  
376.500000	1.540125  
377.000000	1.509066  
377.500000	1.460335  
378.000000	1.372354  
378.500000	1.295644  
379.000000	1.282601  
379.500000	1.242266  
380.000000	1.244775  
380.500000	1.375127  
381.000000	1.554320  
381.500000	1.716114  
382.000000	1.871214  
382.500000	1.969966  
383.000000	1.994778  
383.500000	1.973033  
384.000000	1.950672  
384.500000	1.932643  
385.000000	1.953076  
385.500000	1.985494  
386.000000	1.996087  
386.500000	2.023758  
387.000000	2.068928  
387.500000	2.029818  
388.000000	1.879247  
388.500000	1.731710  
389.000000	1.623678  
389.500000	1.595724  
390.000000	1.579534  
390.500000	1.555520  
391.000000	1.559349  
391.500000	1.651431  
392.000000	1.655171  
392.500000	1.578171  
393.000000	1.438766  
393.500000	1.322379  
394.000000	1.324991  
394.500000	1.332012  
395.000000	1.353789  
395.500000	1.401648  
396.000000	1.529271  
396.500000	1.617687  
397.000000	1.638246  
397.500000	1.537125  
398.000000	1.394376  
398.500000	1.305576  
399.000000	1.207102  
399.500000	1.159112  
400.000000	1.196859  
400.500000	1.280177  
401.000000	1.406824  
401.500000	1.520043  
402.000000	1.558699  
402.500000	1.612965  
403.000000	1.669729  
403.500000	1.700461  
404.000000	1.738875  
404.500000	1.782982  
405.000000	1.797982  
405.500000	1.831443  
406.000000	1.847293  
406.500000	1.747558  
407.000000	1.665955  
407.500000	1.550405  
408.000000	1.464038  
408.500000	1.391310  
409.000000	1.309119  
409.500000	1.235026  
410.000000	1.199590  
410.500000	1.217205  
411.000000	1.182713  
411.500000	1.181181  
412.000000	1.204959  
412.500000	1.305634  
413.000000	1.430860  
413.500000	1.523278  
414.000000	1.605271  
414.500000	1.676606  
415.000000	1.752757  
415.500000	1.767839  
416.000000	1.745740  
416.500000	1.705144  
417.000000	1.670459  
417.500000	1.606613  
418.000000	1.493555  
418.500000	1.376338  
419.000000	1.289728  
419.500000	1.222916  
420.000000	1.169763  
420.500000	1.131525  
421.000000	1.128717  
421.500000	1.151692  
422.000000	1.194851  
422.500000	1.218557  
423.000000	1.225735  
423.500000	1.238593  
424.000000	1.234840  
424.500000	1.210482  
425.000000	1.202119  
425.500000	1.195271  
426.000000	1.173245  
426.500000	1.176155  
427.000000	1.186567  
427.500000	1.196258  
428.000000	1.220215  
428.500000	1.238755  
429.000000	1.257370  
429.500000	1.295723  
430.000000	1.320655  
430.500000	1.293755  
431.000000	1.254478  
431.500000	1.209237  
432.000000	1.177984  
432.500000	1.158772  
433.000000	1.162955  
433.500000	1.178695  
434.000000	1.216207  
434.500000	1.275539  
435.000000	1.303610  
435.500000	1.302277  
436.000000	1.266585  
436.500000	1.222396  
437.000000	1.149038  
437.500000	1.073470  
438.000000	1.017895  
438.500000	0.993892  
439.000000	1.005390  
439.500000	1.020993  
440.000000	1.047223  
440.500000	1.080471  
441.000000	1.131663  
441.500000	1.153726  
442.000000	1.155273  
442.500000	1.140334  
443.000000	1.112828  
443.500000	1.069386  
444.000000	1.005513  
444.500000	0.927587  

