PE FL                   SPECTRUM    ASCII       PEDS        1.60        
  -1
PPPP_2~3
23/10/10
14:31:11.00
23/10/10
14:31:11.00


444.500000
1









LS55
15.00
5.00
5.00
SCAN
1
20
100
100
0
500
0
2
0
1
7
ON
500 450 
1 0 0
#HDR
-1
-1
#GR
NM

0.00002384185791015625
0.0
250.000000
0.500000
390
8
3.169052
-5.237604
#DATA
250.000000	1.394000  
250.500000	0.177712  
251.000000	-0.782417 
251.500000	-1.316848 
252.000000	-1.266246 
252.500000	-0.987382 
253.000000	-0.449027 
253.500000	-0.400411 
254.000000	-0.843315 
254.500000	-1.628918 
255.000000	-2.508999 
255.500000	-3.254942 
256.000000	-3.924883 
256.500000	-4.451289 
257.000000	-4.803805 
257.500000	-4.681116 
258.000000	-4.546133 
258.500000	-4.575903 
259.000000	-4.819794 
259.500000	-5.237604 
260.000000	-5.221569 
260.500000	-4.584098 
261.000000	-3.821261 
261.500000	-2.877293 
262.000000	-1.574638 
262.500000	-0.163872 
263.000000	1.437045  
263.500000	2.605582  
264.000000	2.875428  
264.500000	2.726324  
265.000000	2.584849  
265.500000	2.059641  
266.000000	1.286140  
266.500000	0.594131  
267.000000	-0.112099 
267.500000	-0.443611 
268.000000	-0.550910 
268.500000	-0.895831 
269.000000	-1.477503 
269.500000	-1.588239 
270.000000	-1.928267 
270.500000	-2.132415 
271.000000	-1.707560 
271.500000	-1.270344 
272.000000	-0.703766 
272.500000	-0.082687 
273.000000	0.748800  
273.500000	1.346884  
274.000000	1.948766  
274.500000	2.037129  
275.000000	1.524685  
275.500000	1.070081  
276.000000	0.463324  
276.500000	-0.044776 
277.000000	-0.667087 
277.500000	-0.709724 
278.000000	-0.399420 
278.500000	0.403602  
279.000000	1.493888  
279.500000	2.249392  
280.000000	2.757620  
280.500000	2.953932  
281.000000	3.169052  
281.500000	2.762074  
282.000000	2.099638  
282.500000	1.485851  
283.000000	0.836085  
283.500000	0.436061  
284.000000	0.121294  
284.500000	-0.458633 
285.000000	-1.147237 
285.500000	-1.592463 
286.000000	-2.037688 
286.500000	-2.589974 
287.000000	-2.963824 
287.500000	-3.155728 
288.000000	-3.195283 
288.500000	-3.008631 
289.000000	-2.984672 
289.500000	-3.308385 
290.000000	-3.376428 
290.500000	-3.261061 
291.000000	-3.198834 
291.500000	-3.050479 
292.000000	-2.564212 
292.500000	-2.085779 
293.000000	-1.395503 
293.500000	-0.824240 
294.000000	-0.567841 
294.500000	-0.259863 
295.000000	-0.056646 
295.500000	0.246808  
296.000000	0.450206  
296.500000	0.848059  
297.000000	0.862643  
297.500000	1.052946  
298.000000	1.123948  
298.500000	0.790289  
299.000000	0.374668  
299.500000	-0.222426 
300.000000	-0.681509 
300.500000	-1.162551 
301.000000	-1.382802 
301.500000	-1.984590 
302.000000	-2.347411 
302.500000	-2.686712 
303.000000	-3.118978 
303.500000	-3.544841 
304.000000	-3.890659 
304.500000	-4.071568 
305.000000	-3.964950 
305.500000	-3.583407 
306.000000	-3.406006 
306.500000	-3.154708 
307.000000	-2.720812 
307.500000	-2.318402 
308.000000	-1.812175 
308.500000	-1.160813 
309.000000	-0.567796 
309.500000	0.006132  
310.000000	0.585425  
310.500000	1.103835  
311.000000	1.316108  
311.500000	1.204685  
312.000000	0.753964  
312.500000	0.449447  
313.000000	0.302495  
313.500000	0.078378  
314.000000	-0.205292 
314.500000	-0.422049 
315.000000	-0.354761 
315.500000	-0.227349 
316.000000	-0.223688 
316.500000	-0.347630 
317.000000	-0.246449 
317.500000	0.194053  
318.000000	0.773686  
318.500000	1.344760  
319.000000	1.707372  
319.500000	2.107175  
320.000000	2.479704  
320.500000	2.597461  
321.000000	2.411096  
321.500000	2.023670  
322.000000	1.655942  
322.500000	1.406511  
323.000000	1.313049  
323.500000	1.105039  
324.000000	1.015124  
324.500000	1.023776  
325.000000	0.950407  
325.500000	0.907609  
326.000000	0.751436  
326.500000	0.466989  
327.000000	0.326738  
327.500000	0.250446  
328.000000	0.024742  
328.500000	-0.140131 
329.000000	-0.227452 
329.500000	-0.081202 
330.000000	0.203844  
330.500000	0.493795  
331.000000	0.639679  
331.500000	0.859548  
332.000000	1.192956  
332.500000	1.400149  
333.000000	1.583161  
333.500000	1.677233  
334.000000	1.901798  
334.500000	2.161831  
335.000000	2.267461  
335.500000	2.127294  
336.000000	1.775273  
336.500000	1.379346  
337.000000	0.826938  
337.500000	0.288987  
338.000000	-0.201045 
338.500000	-0.396015 
339.000000	-0.253112 
339.500000	0.086984  
340.000000	0.446700  
340.500000	0.751444  
341.000000	1.130979  
341.500000	1.310598  
342.000000	1.329307  
342.500000	1.335227  
343.000000	1.380954  
343.500000	1.464319  
344.000000	1.658683  
344.500000	1.731836  
345.000000	1.729302  
345.500000	1.794371  
346.000000	1.785073  
346.500000	1.673324  
347.000000	1.542618  
347.500000	1.446628  
348.000000	1.353322  
348.500000	1.457158  
349.000000	1.526353  
349.500000	1.549143  
350.000000	1.583465  
350.500000	1.578668  
351.000000	1.564796  
351.500000	1.568745  
352.000000	1.643703  
352.500000	1.714250  
353.000000	1.918293  
353.500000	2.148951  
354.000000	2.404915  
354.500000	2.592996  
355.000000	2.580691  
355.500000	2.426517  
356.000000	2.066104  
356.500000	1.555677  
357.000000	0.979167  
357.500000	0.507691  
358.000000	0.171081  
358.500000	0.034229  
359.000000	0.188347  
359.500000	0.499594  
360.000000	0.814092  
360.500000	1.089694  
361.000000	1.210025  
361.500000	1.183014  
362.000000	1.088035  
362.500000	0.915610  
363.000000	0.663104  
363.500000	0.579961  
364.000000	0.703454  
364.500000	0.893603  
365.000000	1.179018  
365.500000	1.413980  
366.000000	1.539251  
366.500000	1.580343  
367.000000	1.452896  
367.500000	1.224031  
368.000000	0.965367  
368.500000	0.777816  
369.000000	0.625738  
369.500000	0.645257  
370.000000	0.787433  
370.500000	1.048920  
371.000000	1.399299  
371.500000	1.658321  
372.000000	1.915417  
372.500000	2.077479  
373.000000	2.127763  
373.500000	2.042480  
374.000000	1.827678  
374.500000	1.548753  
375.000000	1.309862  
375.500000	1.136928  
376.000000	0.933249  
376.500000	0.865618  
377.000000	0.907331  
377.500000	1.060693  
378.000000	1.275587  
378.500000	1.413994  
379.000000	1.481987  
379.500000	1.558195  
380.000000	1.535654  
380.500000	1.391646  
381.000000	1.186019  
381.500000	0.945491  
382.000000	0.742592  
382.500000	0.613076  
383.000000	0.511194  
383.500000	0.423486  
384.000000	0.479372  
384.500000	0.546929  
385.000000	0.590547  
385.500000	0.667131  
386.000000	0.814281  
386.500000	0.983941  
387.000000	1.074215  
387.500000	1.163343  
388.000000	1.169123  
388.500000	1.232512  
389.000000	1.292666  
389.500000	1.240777  
390.000000	1.171672  
390.500000	1.164690  
391.000000	1.244744  
391.500000	1.239975  
392.000000	1.247343  
392.500000	1.163699  
393.000000	1.102888  
393.500000	1.095481  
394.000000	1.022835  
394.500000	0.908454  
395.000000	0.816261  
395.500000	0.839830  
396.000000	0.862820  
396.500000	0.894783  
397.000000	0.824645  
397.500000	0.767725  
398.000000	0.776376  
398.500000	0.800977  
399.000000	0.831746  
399.500000	0.851621  
400.000000	0.924885  
400.500000	1.037653  
401.000000	1.182946  
401.500000	1.238802  
402.000000	1.288842  
402.500000	1.311966  
403.000000	1.340983  
403.500000	1.330477  
404.000000	1.294028  
404.500000	1.250302  
405.000000	1.209166  
405.500000	1.181720  
406.000000	1.101656  
406.500000	1.014983  
407.000000	0.922171  
407.500000	0.836688  
408.000000	0.752336  
408.500000	0.693357  
409.000000	0.656580  
409.500000	0.645949  
410.000000	0.688173  
410.500000	0.793112  
411.000000	0.943710  
411.500000	1.131343  
412.000000	1.322074  
412.500000	1.484215  
413.000000	1.573485  
413.500000	1.573530  
414.000000	1.484689  
414.500000	1.357693  
415.000000	1.219153  
415.500000	1.068824  
416.000000	0.970855  
416.500000	0.930997  
417.000000	0.957755  
417.500000	1.012444  
418.000000	1.099697  
418.500000	1.146453  
419.000000	1.165770  
419.500000	1.145227  
420.000000	1.057461  
420.500000	0.942314  
421.000000	0.854868  
421.500000	0.791530  
422.000000	0.745411  
422.500000	0.763723  
423.000000	0.778178  
423.500000	0.816358  
424.000000	0.869274  
424.500000	0.900274  
425.000000	0.888714  
425.500000	0.847685  
426.000000	0.787992  
426.500000	0.726207  
427.000000	0.700492  
427.500000	0.672322  
428.000000	0.655868  
428.500000	0.675812  
429.000000	0.739492  
429.500000	0.798724  
430.000000	0.846449  
430.500000	0.899940  
431.000000	0.970843  
431.500000	1.035677  
432.000000	1.077928  
432.500000	1.070875  
433.000000	1.038112  
433.500000	1.021139  
434.000000	0.984581  
434.500000	0.913020  
435.000000	0.863382  
435.500000	0.849638  
436.000000	0.841353  
436.500000	0.849050  
437.000000	0.854810  
437.500000	0.867433  
438.000000	0.900294  
438.500000	0.931641  
439.000000	0.928680  
439.500000	0.936442  
440.000000	0.972121  
440.500000	0.983909  
441.000000	0.982485  
441.500000	0.959813  
442.000000	0.922266  
442.500000	0.895499  
443.000000	0.905643  
443.500000	0.910804  
444.000000	0.932737  
444.500000	1.001936  

