PE FL                   SPECTRUM    ASCII       PEDS        1.60        
  -1
PPPP_2~4
23/10/10
14:31:52.00
23/10/10
14:31:52.00


444.500000
1









LS55
20.00
5.00
5.00
SCAN
1
20
100
100
0
500
0
2
0
1
7
ON
500 450 
1 0 0
#HDR
-1
-1
#GR
NM

0.00002384185791015625
0.0
250.000000
0.500000
390
8
1.908614
-4.004066
#DATA
250.000000	-0.000000 
250.500000	-0.395015 
251.000000	-0.938093 
251.500000	-1.232893 
252.000000	-1.223151 
252.500000	-1.189332 
253.000000	-1.546338 
253.500000	-2.051054 
254.000000	-2.592706 
254.500000	-2.821510 
255.000000	-2.821760 
255.500000	-2.689085 
256.000000	-2.423501 
256.500000	-1.928541 
257.000000	-1.300421 
257.500000	-1.305486 
258.000000	-1.508325 
258.500000	-1.788411 
259.000000	-2.067624 
259.500000	-2.147281 
260.000000	-2.026850 
260.500000	-1.937488 
261.000000	-1.874531 
261.500000	-1.825931 
262.000000	-2.229035 
262.500000	-2.909284 
263.000000	-3.383647 
263.500000	-3.814428 
264.000000	-4.004066 
264.500000	-3.937212 
265.000000	-3.594713 
265.500000	-3.222483 
266.000000	-2.876825 
266.500000	-2.620327 
267.000000	-2.527878 
267.500000	-2.406769 
268.000000	-2.324199 
268.500000	-2.177509 
269.000000	-2.244279 
269.500000	-2.157333 
270.000000	-2.346288 
270.500000	-2.439909 
271.000000	-2.309811 
271.500000	-2.128937 
272.000000	-2.009584 
272.500000	-1.858492 
273.000000	-1.680510 
273.500000	-1.639062 
274.000000	-1.389209 
274.500000	-1.763172 
275.000000	-2.061469 
275.500000	-2.014978 
276.000000	-1.589955 
276.500000	-1.143664 
277.000000	-0.780714 
277.500000	-0.530915 
278.000000	-0.284101 
278.500000	0.389519  
279.000000	0.474372  
279.500000	0.112344  
280.000000	0.120159  
280.500000	0.458319  
281.000000	0.872178  
281.500000	1.340423  
282.000000	1.363835  
282.500000	1.438729  
283.000000	1.826619  
283.500000	1.845974  
284.000000	1.421989  
284.500000	0.964232  
285.000000	0.748917  
285.500000	0.458117  
286.000000	0.241220  
286.500000	-0.409950 
287.000000	-1.077557 
287.500000	-1.444989 
288.000000	-1.645861 
288.500000	-1.824263 
289.000000	-2.046571 
289.500000	-2.121539 
290.000000	-2.415426 
290.500000	-2.354397 
291.000000	-2.275014 
291.500000	-2.015869 
292.000000	-1.631964 
292.500000	-1.073969 
293.000000	-0.438801 
293.500000	0.203856  
294.000000	0.765242  
294.500000	0.762934  
295.000000	0.707176  
295.500000	0.686492  
296.000000	0.563577  
296.500000	0.152492  
297.000000	-0.264703 
297.500000	-0.772808 
298.000000	-0.991357 
298.500000	-1.085562 
299.000000	-1.489916 
299.500000	-1.891386 
300.000000	-1.937574 
300.500000	-1.798625 
301.000000	-1.669329 
301.500000	-1.557560 
302.000000	-1.454549 
302.500000	-1.178517 
303.000000	-0.845849 
303.500000	-0.712428 
304.000000	-0.786535 
304.500000	-0.648753 
305.000000	-0.511475 
305.500000	-0.528305 
306.000000	-0.564970 
306.500000	-0.450717 
307.000000	-0.216916 
307.500000	0.046470  
308.000000	0.188427  
308.500000	0.106673  
309.000000	0.146754  
309.500000	-0.150271 
310.000000	-0.686230 
310.500000	-1.129573 
311.000000	-1.234718 
311.500000	-0.954627 
312.000000	-0.385459 
312.500000	0.027226  
313.000000	0.352080  
313.500000	0.767498  
314.000000	0.840100  
314.500000	0.720071  
315.000000	0.472025  
315.500000	0.116868  
316.000000	-0.070961 
316.500000	0.058399  
317.000000	0.165493  
317.500000	0.056808  
318.000000	-0.069376 
318.500000	-0.312954 
319.000000	-0.374079 
319.500000	-0.262518 
320.000000	-0.437628 
320.500000	-0.712554 
321.000000	-0.782611 
321.500000	-0.490933 
322.000000	-0.302638 
322.500000	-0.326882 
323.000000	-0.358558 
323.500000	-0.287259 
324.000000	0.069411  
324.500000	0.285876  
325.000000	0.319091  
325.500000	0.131366  
326.000000	0.320921  
326.500000	0.605321  
327.000000	0.775511  
327.500000	0.990688  
328.000000	1.185703  
328.500000	1.532317  
329.000000	1.811129  
329.500000	1.908614  
330.000000	1.660880  
330.500000	1.418655  
331.000000	1.139033  
331.500000	0.827930  
332.000000	0.427222  
332.500000	0.106194  
333.000000	-0.096274 
333.500000	-0.123366 
334.000000	-0.014686 
334.500000	0.141529  
335.000000	0.431930  
335.500000	0.747105  
336.000000	0.983920  
336.500000	0.968620  
337.000000	0.796040  
337.500000	0.551804  
338.000000	0.227012  
338.500000	-0.230909 
339.000000	-0.572284 
339.500000	-0.756270 
340.000000	-0.874207 
340.500000	-0.873115 
341.000000	-0.808924 
341.500000	-0.616541 
342.000000	-0.334736 
342.500000	-0.033155 
343.000000	0.167059  
343.500000	0.459026  
344.000000	0.723780  
344.500000	0.883554  
345.000000	0.891368  
345.500000	0.792910  
346.000000	0.740886  
346.500000	0.729940  
347.000000	0.723530  
347.500000	0.688870  
348.000000	0.789303  
348.500000	0.887242  
349.000000	0.976338  
349.500000	0.975910  
350.000000	0.895716  
350.500000	0.910065  
351.000000	0.913060  
351.500000	0.852547  
352.000000	0.787406  
352.500000	0.661688  
353.000000	0.422454  
353.500000	0.230693  
354.000000	0.017170  
354.500000	-0.158798 
355.000000	-0.241389 
355.500000	-0.198806 
356.000000	-0.158246 
356.500000	-0.044944 
357.000000	-0.010719 
357.500000	-0.109090 
358.000000	-0.190026 
358.500000	-0.345578 
359.000000	-0.455936 
359.500000	-0.456136 
360.000000	-0.370574 
360.500000	-0.214907 
361.000000	0.035803  
361.500000	0.243883  
362.000000	0.515980  
362.500000	0.756049  
363.000000	0.903300  
363.500000	0.926227  
364.000000	0.991761  
364.500000	0.951568  
365.000000	0.866368  
365.500000	0.688649  
366.000000	0.419713  
366.500000	0.295446  
367.000000	0.226575  
367.500000	0.234398  
368.000000	0.250556  
368.500000	0.455130  
369.000000	0.657224  
369.500000	0.852196  
370.000000	0.984183  
370.500000	1.011819  
371.000000	1.110778  
371.500000	1.211537  
372.000000	1.299186  
372.500000	1.328803  
373.000000	1.364127  
373.500000	1.416882  
374.000000	1.348532  
374.500000	1.150495  
375.000000	0.965960  
375.500000	0.788548  
376.000000	0.616669  
376.500000	0.484709  
377.000000	0.430317  
377.500000	0.393073  
378.000000	0.521143  
378.500000	0.654027  
379.000000	0.732400  
379.500000	0.879819  
380.000000	0.980125  
380.500000	1.035191  
381.000000	1.108166  
381.500000	1.199238  
382.000000	1.224122  
382.500000	1.344548  
383.000000	1.465006  
383.500000	1.478516  
384.000000	1.498256  
384.500000	1.438040  
385.000000	1.300996  
385.500000	1.106786  
386.000000	0.885473  
386.500000	0.595343  
387.000000	0.448569  
387.500000	0.357604  
388.000000	0.307483  
388.500000	0.330086  
389.000000	0.405971  
389.500000	0.539961  
390.000000	0.700219  
390.500000	0.833594  
391.000000	0.903193  
391.500000	1.039608  
392.000000	1.189291  
392.500000	1.348006  
393.000000	1.417269  
393.500000	1.449050  
394.000000	1.464002  
394.500000	1.432315  
395.000000	1.372297  
395.500000	1.301359  
396.000000	1.195910  
396.500000	1.081961  
397.000000	1.037532  
397.500000	0.963422  
398.000000	0.887908  
398.500000	0.849453  
399.000000	0.811632  
399.500000	0.776020  
400.000000	0.815649  
400.500000	0.829840  
401.000000	0.818982  
401.500000	0.861916  
402.000000	0.859145  
402.500000	0.835413  
403.000000	0.842730  
403.500000	0.834722  
404.000000	0.804622  
404.500000	0.832089  
405.000000	0.856474  
405.500000	0.883354  
406.000000	0.959149  
406.500000	0.979965  
407.000000	0.963408  
407.500000	0.963636  
408.000000	0.991018  
408.500000	0.985443  
409.000000	0.992774  
409.500000	0.970836  
410.000000	0.977646  
410.500000	1.031496  
411.000000	1.056453  
411.500000	1.044853  
412.000000	1.015946  
412.500000	0.997592  
413.000000	0.985095  
413.500000	0.974519  
414.000000	0.919183  
414.500000	0.873602  
415.000000	0.866701  
415.500000	0.882152  
416.000000	0.888874  
416.500000	0.875331  
417.000000	0.869886  
417.500000	0.879879  
418.000000	0.893270  
418.500000	0.872830  
419.000000	0.831969  
419.500000	0.788129  
420.000000	0.723314  
420.500000	0.648894  
421.000000	0.576571  
421.500000	0.530120  
422.000000	0.505235  
422.500000	0.521178  
423.000000	0.555110  
423.500000	0.603433  
424.000000	0.668899  
424.500000	0.717436  
425.000000	0.721442  
425.500000	0.688664  
426.000000	0.665969  
426.500000	0.653021  
427.000000	0.657733  
427.500000	0.680496  
428.000000	0.723584  
428.500000	0.797632  
429.000000	0.896308  
429.500000	0.964112  
430.000000	0.963211  
430.500000	0.928152  
431.000000	0.894542  
431.500000	0.843856  
432.000000	0.807613  
432.500000	0.746910  
433.000000	0.688496  
433.500000	0.681157  
434.000000	0.694598  
434.500000	0.666624  
435.000000	0.645471  
435.500000	0.652462  
436.000000	0.664713  
436.500000	0.727382  
437.000000	0.774923  
437.500000	0.801775  
438.000000	0.844579  
438.500000	0.880064  
439.000000	0.855620  
439.500000	0.817842  
440.000000	0.767436  
440.500000	0.714996  
441.000000	0.703617  
441.500000	0.701854  
442.000000	0.699967  
442.500000	0.716904  
443.000000	0.745794  
443.500000	0.745412  
444.000000	0.729601  
444.500000	0.695323  

