PE FL                   SPECTRUM    ASCII       PEDS        1.60        
  -1
PP64A0~1
23/10/10
14:35:14.00
23/10/10
14:35:14.00


444.500000
1









LS55
45.00
5.00
5.00
SCAN
1
20
100
100
0
500
0
2
0
1
7
ON
500 450 
1 0 0
#HDR
-1
-1
#GR
NM

0.00002384185791015625
0.0
250.000000
0.500000
390
8
2.418052
-5.000000
#DATA
250.000000	-5.000000 
250.500000	-3.909433 
251.000000	-2.804499 
251.500000	-1.619755 
252.000000	-0.710463 
252.500000	-0.405243 
253.000000	-0.334611 
253.500000	-0.350203 
254.000000	-0.951703 
254.500000	-1.962224 
255.000000	-2.849630 
255.500000	-3.285771 
256.000000	-3.439994 
256.500000	-3.129058 
257.000000	-2.649551 
257.500000	-2.333227 
258.000000	-1.706122 
258.500000	-1.238110 
259.000000	-1.173497 
259.500000	-1.310796 
260.000000	-1.384966 
260.500000	-1.449887 
261.000000	-1.704035 
261.500000	-1.599765 
262.000000	-1.564640 
262.500000	-1.397665 
263.000000	-1.015311 
263.500000	-0.823677 
264.000000	-0.787724 
264.500000	-0.577419 
265.000000	-0.295267 
265.500000	-0.750457 
266.000000	-1.255296 
266.500000	-1.927287 
267.000000	-2.381954 
267.500000	-2.295740 
268.000000	-1.983616 
268.500000	-1.607913 
269.000000	-0.803067 
269.500000	0.615089  
270.000000	1.701214  
270.500000	2.350376  
271.000000	2.340304  
271.500000	2.002139  
272.000000	1.746455  
272.500000	1.306987  
273.000000	0.419152  
273.500000	-0.527394 
274.000000	-1.030668 
274.500000	-1.097151 
275.000000	-1.030630 
275.500000	-1.200759 
276.000000	-1.356656 
276.500000	-1.194626 
277.000000	-0.837219 
277.500000	-0.772802 
278.000000	-0.861695 
278.500000	-0.757763 
279.000000	-0.243231 
279.500000	0.252677  
280.000000	0.491040  
280.500000	0.613536  
281.000000	0.746799  
281.500000	0.810742  
282.000000	0.616290  
282.500000	0.220896  
283.000000	-0.277079 
283.500000	-0.577472 
284.000000	-0.574353 
284.500000	-0.479211 
285.000000	-0.230597 
285.500000	0.194805  
286.000000	0.595337  
286.500000	1.122652  
287.000000	1.749109  
287.500000	2.142290  
288.000000	2.068893  
288.500000	1.801604  
289.000000	1.393912  
289.500000	0.876164  
290.000000	0.316973  
290.500000	-0.371985 
291.000000	-0.923706 
291.500000	-1.342340 
292.000000	-1.387863 
292.500000	-1.485861 
293.000000	-1.596042 
293.500000	-1.646729 
294.000000	-1.658939 
294.500000	-1.579555 
295.000000	-1.596554 
295.500000	-1.627460 
296.000000	-1.869948 
296.500000	-1.718503 
297.000000	-1.518668 
297.500000	-1.342300 
298.000000	-0.965134 
298.500000	-0.564102 
299.000000	-0.092000 
299.500000	0.351459  
300.000000	0.831603  
300.500000	1.173294  
301.000000	1.717874  
301.500000	2.104838  
302.000000	2.132981  
302.500000	1.901396  
303.000000	1.374870  
303.500000	0.596056  
304.000000	-0.452037 
304.500000	-1.737661 
305.000000	-2.700687 
305.500000	-3.056329 
306.000000	-2.951060 
306.500000	-2.433309 
307.000000	-1.603348 
307.500000	-0.745523 
308.000000	-0.239924 
308.500000	0.147252  
309.000000	0.109250  
309.500000	0.252694  
310.000000	0.312228  
310.500000	0.515909  
311.000000	0.967871  
311.500000	1.477029  
312.000000	1.823376  
312.500000	1.762459  
313.000000	1.556993  
313.500000	0.840286  
314.000000	0.180261  
314.500000	-0.673984 
315.000000	-1.480264 
315.500000	-1.959439 
316.000000	-2.045464 
316.500000	-1.837795 
317.000000	-1.516478 
317.500000	-0.896709 
318.000000	-0.504924 
318.500000	-0.073884 
319.000000	0.217624  
319.500000	0.335800  
320.000000	0.329982  
320.500000	0.266420  
321.000000	0.023460  
321.500000	-0.068472 
322.000000	0.269146  
322.500000	0.580842  
323.000000	0.855316  
323.500000	1.106971  
324.000000	1.270832  
324.500000	1.363907  
325.000000	1.337098  
325.500000	0.997135  
326.000000	0.607178  
326.500000	0.452811  
327.000000	0.297834  
327.500000	0.164075  
328.000000	0.110128  
328.500000	0.069263  
329.000000	0.168044  
329.500000	0.299003  
330.000000	0.387472  
330.500000	0.413218  
331.000000	0.419366  
331.500000	0.367078  
332.000000	0.255053  
332.500000	0.200622  
333.000000	0.090016  
333.500000	0.081234  
334.000000	0.036622  
334.500000	0.093103  
335.000000	0.243463  
335.500000	0.471885  
336.000000	0.685816  
336.500000	0.784911  
337.000000	0.800801  
337.500000	0.749580  
338.000000	0.686978  
338.500000	0.487175  
339.000000	0.243655  
339.500000	0.045013  
340.000000	0.018350  
340.500000	0.144332  
341.000000	0.337168  
341.500000	0.467333  
342.000000	0.483223  
342.500000	0.417568  
343.000000	0.244118  
343.500000	-0.078931 
344.000000	-0.500486 
344.500000	-0.811557 
345.000000	-0.939492 
345.500000	-0.942283 
346.000000	-0.718224 
346.500000	-0.412038 
347.000000	-0.104312 
347.500000	0.163403  
348.000000	0.427580  
348.500000	0.579866  
349.000000	0.758612  
349.500000	1.035729  
350.000000	1.261851  
350.500000	1.581844  
351.000000	1.940003  
351.500000	2.190839  
352.000000	2.348210  
352.500000	2.418052  
353.000000	2.354782  
353.500000	2.144821  
354.000000	1.882393  
354.500000	1.637505  
355.000000	1.339536  
355.500000	1.121375  
356.000000	0.916826  
356.500000	0.802931  
357.000000	0.745273  
357.500000	0.854185  
358.000000	1.006073  
358.500000	1.181048  
359.000000	1.536169  
359.500000	1.838295  
360.000000	2.079780  
360.500000	2.230423  
361.000000	2.307332  
361.500000	2.168600  
362.000000	2.074076  
362.500000	1.907410  
363.000000	1.718284  
363.500000	1.641516  
364.000000	1.585777  
364.500000	1.503197  
365.000000	1.549272  
365.500000	1.685455  
366.000000	1.721782  
366.500000	1.810303  
367.000000	1.881851  
367.500000	1.944522  
368.000000	1.985528  
368.500000	1.964447  
369.000000	1.817510  
369.500000	1.658280  
370.000000	1.494206  
370.500000	1.282317  
371.000000	1.131991  
371.500000	1.070649  
372.000000	1.087191  
372.500000	1.243028  
373.000000	1.429763  
373.500000	1.590570  
374.000000	1.726313  
374.500000	1.830912  
375.000000	1.832060  
375.500000	1.724335  
376.000000	1.631414  
376.500000	1.515572  
377.000000	1.455753  
377.500000	1.485371  
378.000000	1.506128  
378.500000	1.564923  
379.000000	1.708532  
379.500000	1.829852  
380.000000	1.917559  
380.500000	1.958294  
381.000000	1.928267  
381.500000	1.898696  
382.000000	1.921133  
382.500000	1.820917  
383.000000	1.661548  
383.500000	1.552625  
384.000000	1.434523  
384.500000	1.352304  
385.000000	1.282283  
385.500000	1.209574  
386.000000	1.164853  
386.500000	1.197082  
387.000000	1.205470  
387.500000	1.184952  
388.000000	1.190377  
388.500000	1.195440  
389.000000	1.235675  
389.500000	1.262737  
390.000000	1.238900  
390.500000	1.196709  
391.000000	1.151423  
391.500000	1.099174  
392.000000	1.001184  
392.500000	0.946719  
393.000000	0.901406  
393.500000	0.865608  
394.000000	0.806125  
394.500000	0.751479  
395.000000	0.675001  
395.500000	0.597645  
396.000000	0.555260  
396.500000	0.489604  
397.000000	0.494518  
397.500000	0.560451  
398.000000	0.631253  
398.500000	0.689862  
399.000000	0.752746  
399.500000	0.737508  
400.000000	0.708791  
400.500000	0.659137  
401.000000	0.545477  
401.500000	0.450930  
402.000000	0.407928  
402.500000	0.336191  
403.000000	0.281787  
403.500000	0.256644  
404.000000	0.195594  
404.500000	0.178110  
405.000000	0.192290  
405.500000	0.207447  
406.000000	0.230405  
406.500000	0.296741  
407.000000	0.303652  
407.500000	0.323820  
408.000000	0.371294  
408.500000	0.372482  
409.000000	0.351679  
409.500000	0.342702  
410.000000	0.293040  
410.500000	0.255649  
411.000000	0.256383  
411.500000	0.213129  
412.000000	0.163444  
412.500000	0.156546  
413.000000	0.187085  
413.500000	0.223138  
414.000000	0.285131  
414.500000	0.297077  
415.000000	0.292759  
415.500000	0.273976  
416.000000	0.216670  
416.500000	0.128308  
417.000000	0.061381  
417.500000	0.050854  
418.000000	0.086521  
418.500000	0.211275  
419.000000	0.348590  
419.500000	0.467881  
420.000000	0.556652  
420.500000	0.590548  
421.000000	0.562298  
421.500000	0.495380  
422.000000	0.405526  
422.500000	0.314505  
423.000000	0.268224  
423.500000	0.265828  
424.000000	0.277749  
424.500000	0.296145  
425.000000	0.305607  
425.500000	0.315138  
426.000000	0.318346  
426.500000	0.305425  
427.000000	0.290930  
427.500000	0.305632  
428.000000	0.320912  
428.500000	0.322961  
429.000000	0.324676  
429.500000	0.320378  
430.000000	0.319707  
430.500000	0.321023  
431.000000	0.312786  
431.500000	0.328605  
432.000000	0.363061  
432.500000	0.393064  
433.000000	0.426486  
433.500000	0.438667  
434.000000	0.414597  
434.500000	0.388418  
435.000000	0.333380  
435.500000	0.266389  
436.000000	0.222564  
436.500000	0.188493  
437.000000	0.170500  
437.500000	0.184403  
438.000000	0.217292  
438.500000	0.257584  
439.000000	0.328582  
439.500000	0.372404  
440.000000	0.404317  
440.500000	0.428951  
441.000000	0.414501  
441.500000	0.381432  
442.000000	0.347246  
442.500000	0.297241  
443.000000	0.233854  
443.500000	0.214977  
444.000000	0.209090  
444.500000	0.220611  

