PE FL                   SPECTRUM    ASCII       PEDS        1.60        
  -1
PPPP_2~1
23/10/10
14:29:51.00
23/10/10
14:29:51.00


444.500000
1









LS55
5.00
5.00
5.00
SCAN
1
20
100
100
0
500
0
2
0
1
7
ON
500 450 
1 0 0
#HDR
-1
-1
#GR
NM

0.00002384185791015625
0.0
250.000000
0.500000
390
8
53.889116
-4.244170
#DATA
250.000000	6.655000  
250.500000	3.930022  
251.000000	1.803092  
251.500000	0.073750  
252.000000	-0.880044 
252.500000	-1.503772 
253.000000	-1.510577 
253.500000	-1.204371 
254.000000	-0.561248 
254.500000	-0.486998 
255.000000	-0.600912 
255.500000	-0.941398 
256.000000	-1.524616 
256.500000	-1.750055 
257.000000	-2.135939 
257.500000	-2.515685 
258.000000	-2.795376 
258.500000	-2.613306 
259.000000	-2.496421 
259.500000	-2.327117 
260.000000	-2.292658 
260.500000	-2.314290 
261.000000	-2.137045 
261.500000	-2.075517 
262.000000	-2.067680 
262.500000	-2.234061 
263.000000	-2.304784 
263.500000	-2.411164 
264.000000	-2.742136 
264.500000	-3.485957 
265.000000	-3.906199 
265.500000	-4.212483 
266.000000	-4.244170 
266.500000	-3.762679 
267.000000	-2.762376 
267.500000	-1.321546 
268.000000	0.239867  
268.500000	1.664697  
269.000000	2.182757  
269.500000	2.801932  
270.000000	2.751571  
270.500000	1.980691  
271.000000	1.060094  
271.500000	0.336703  
272.000000	-0.131824 
272.500000	-0.386934 
273.000000	-0.303940 
273.500000	-0.382023 
274.000000	0.243483  
274.500000	0.702572  
275.000000	0.773050  
275.500000	0.789597  
276.000000	0.721177  
276.500000	0.412549  
277.000000	-0.264792 
277.500000	-1.026298 
278.000000	-1.691337 
278.500000	-1.791704 
279.000000	-1.510054 
279.500000	-0.959904 
280.000000	-0.132438 
280.500000	0.790131  
281.000000	1.583524  
281.500000	1.887796  
282.000000	1.342019  
282.500000	0.619450  
283.000000	-0.105522 
283.500000	-0.568554 
284.000000	-0.837962 
284.500000	-0.890009 
285.000000	-0.655462 
285.500000	0.079536  
286.000000	0.830587  
286.500000	1.097756  
287.000000	1.306892  
287.500000	1.134558  
288.000000	0.998898  
288.500000	0.589053  
289.000000	0.219897  
289.500000	-0.178729 
290.000000	-0.345646 
290.500000	-0.108528 
291.000000	-0.020001 
291.500000	0.313374  
292.000000	0.593437  
292.500000	1.046458  
293.000000	0.947074  
293.500000	0.866366  
294.000000	0.691665  
294.500000	0.304966  
295.000000	-0.035258 
295.500000	-0.383801 
296.000000	-0.372277 
296.500000	0.115419  
297.000000	0.964561  
297.500000	1.481403  
298.000000	2.150967  
298.500000	2.779371  
299.000000	2.991057  
299.500000	2.919962  
300.000000	2.319523  
300.500000	1.541449  
301.000000	0.962908  
301.500000	0.637258  
302.000000	0.408819  
302.500000	0.597800  
303.000000	1.247985  
303.500000	2.169860  
304.000000	3.099063  
304.500000	3.580534  
305.000000	3.650890  
305.500000	3.552448  
306.000000	3.119474  
306.500000	2.409444  
307.000000	1.758215  
307.500000	1.514703  
308.000000	1.600067  
308.500000	2.049994  
309.000000	2.706183  
309.500000	3.339270  
310.000000	3.915142  
310.500000	4.091983  
311.000000	3.984721  
311.500000	3.694607  
312.000000	3.600228  
312.500000	3.566166  
313.000000	3.732205  
313.500000	4.136584  
314.000000	4.522814  
314.500000	5.060879  
315.000000	5.351951  
315.500000	5.524735  
316.000000	5.667433  
316.500000	6.014374  
317.000000	6.222287  
317.500000	6.484500  
318.000000	6.850196  
318.500000	7.211607  
319.000000	7.697019  
319.500000	7.792444  
320.000000	7.672339  
320.500000	7.566071  
321.000000	7.711505  
321.500000	7.749773  
322.000000	7.945913  
322.500000	8.005341  
323.000000	8.089880  
323.500000	8.477756  
324.000000	8.715409  
324.500000	8.827666  
325.000000	8.807273  
325.500000	8.986004  
326.000000	9.219179  
326.500000	9.663759  
327.000000	9.984807  
327.500000	10.167010 
328.000000	10.431508 
328.500000	10.621129 
329.000000	10.840078 
329.500000	10.845445 
330.000000	10.815930 
330.500000	10.768386 
331.000000	11.043998 
331.500000	11.405862 
332.000000	11.758780 
332.500000	12.046714 
333.000000	12.244521 
333.500000	12.495276 
334.000000	12.800942 
334.500000	13.071633 
335.000000	13.219682 
335.500000	13.519796 
336.000000	13.904289 
336.500000	14.475097 
337.000000	15.138915 
337.500000	15.788116 
338.000000	16.184788 
338.500000	16.718708 
339.000000	17.231970 
339.500000	17.498506 
340.000000	17.861477 
340.500000	18.001851 
341.000000	18.040671 
341.500000	17.971863 
342.000000	18.017351 
342.500000	17.577706 
343.000000	17.083695 
343.500000	16.515764 
344.000000	15.812298 
344.500000	15.429023 
345.000000	15.307533 
345.500000	15.531822 
346.000000	15.930035 
346.500000	17.042705 
347.000000	18.310415 
347.500000	19.978881 
348.000000	21.620364 
348.500000	22.893600 
349.000000	24.031604 
349.500000	24.938009 
350.000000	25.771478 
350.500000	26.148998 
351.000000	26.494741 
351.500000	26.776232 
352.000000	27.403446 
352.500000	28.199573 
353.000000	28.940743 
353.500000	29.928400 
354.000000	30.868479 
354.500000	32.112386 
355.000000	33.672684 
355.500000	35.449563 
356.000000	37.439918 
356.500000	39.727695 
357.000000	42.083336 
357.500000	44.186197 
358.000000	46.426576 
358.500000	48.052301 
359.000000	49.111672 
359.500000	49.811351 
360.000000	50.293889 
360.500000	50.830923 
361.000000	51.385851 
361.500000	51.887739 
362.000000	52.243002 
362.500000	52.978580 
363.000000	53.566607 
363.500000	53.702780 
364.000000	53.444090 
364.500000	52.895506 
365.000000	52.376452 
365.500000	51.921910 
366.000000	51.454208 
366.500000	50.785481 
367.000000	50.413403 
367.500000	50.303563 
368.000000	50.141499 
368.500000	49.955731 
369.000000	49.604805 
369.500000	49.292839 
370.000000	49.182173 
370.500000	49.211151 
371.000000	49.034294 
371.500000	48.830609 
372.000000	48.812531 
372.500000	48.535338 
373.000000	48.329247 
373.500000	48.067760 
374.000000	47.816948 
374.500000	47.907376 
375.000000	48.495467 
375.500000	49.246605 
376.000000	50.179770 
376.500000	51.352480 
377.000000	52.074254 
377.500000	52.883208 
378.000000	53.586303 
378.500000	53.889116 
379.000000	53.834860 
379.500000	53.465568 
380.000000	52.832714 
380.500000	52.230967 
381.000000	51.617451 
381.500000	50.506784 
382.000000	49.558599 
382.500000	48.750186 
383.000000	48.160059 
383.500000	47.765440 
384.000000	47.376718 
384.500000	46.830128 
385.000000	46.412617 
385.500000	46.157212 
386.000000	45.573931 
386.500000	44.830566 
387.000000	43.725756 
387.500000	42.449545 
388.000000	41.141287 
388.500000	39.765243 
389.000000	38.022870 
389.500000	35.971898 
390.000000	33.856360 
390.500000	31.863422 
391.000000	29.919166 
391.500000	27.873978 
392.000000	25.769918 
392.500000	23.901861 
393.000000	22.585851 
393.500000	21.689715 
394.000000	21.073754 
394.500000	20.699082 
395.000000	20.699756 
395.500000	20.891539 
396.000000	21.055404 
396.500000	20.958001 
397.000000	20.661997 
397.500000	20.223589 
398.000000	19.604166 
398.500000	18.998989 
399.000000	18.324577 
399.500000	17.674560 
400.000000	17.107595 
400.500000	16.580428 
401.000000	16.038714 
401.500000	15.550790 
402.000000	15.199795 
402.500000	14.859970 
403.000000	14.617382 
403.500000	14.434493 
404.000000	14.290141 
404.500000	14.148347 
405.000000	13.870218 
405.500000	13.496746 
406.000000	12.972465 
406.500000	12.449407 
407.000000	11.915993 
407.500000	11.429279 
408.000000	11.015588 
408.500000	10.766999 
409.000000	10.695565 
409.500000	10.710874 
410.000000	10.833943 
410.500000	10.846948 
411.000000	10.825316 
411.500000	10.766586 
412.000000	10.620421 
412.500000	10.419282 
413.000000	10.314218 
413.500000	10.330415 
414.000000	10.460350 
414.500000	10.755491 
415.000000	11.120913 
415.500000	11.539494 
416.000000	12.031609 
416.500000	12.391476 
417.000000	12.565487 
417.500000	12.762501 
418.000000	13.020852 
418.500000	13.288407 
419.000000	13.545824 
419.500000	13.738213 
420.000000	13.972098 
420.500000	14.298405 
421.000000	14.494767 
421.500000	14.514590 
422.000000	14.575863 
422.500000	14.779083 
423.000000	15.041818 
423.500000	15.371620 
424.000000	15.672432 
424.500000	16.058883 
425.000000	16.645744 
425.500000	17.261203 
426.000000	17.827497 
426.500000	18.327175 
427.000000	18.874304 
427.500000	19.375485 
428.000000	19.835023 
428.500000	20.183554 
429.000000	20.535554 
429.500000	20.979625 
430.000000	21.525414 
430.500000	22.325268 
431.000000	23.296825 
431.500000	24.545046 
432.000000	25.933603 
432.500000	27.787658 
433.000000	29.939765 
433.500000	32.189543 
434.000000	34.363646 
434.500000	36.399683 
435.000000	38.357129 
435.500000	40.127130 
436.000000	41.558966 
436.500000	42.227160 
437.000000	42.697302 
437.500000	42.887984 
438.000000	42.911416 
438.500000	42.756755 
439.000000	42.571446 
439.500000	42.495529 
440.000000	42.947099 
440.500000	43.914075 
441.000000	44.925361 
441.500000	46.333760 
442.000000	47.781361 
442.500000	49.384645 
443.000000	50.955658 
443.500000	52.333893 
444.000000	53.203677 
444.500000	53.820709 

