PE FL                   SPECTRUM    ASCII       PEDS        1.60        
  -1
PP44A0~1
23/10/10
14:33:53.00
23/10/10
14:33:53.00


444.500000
1









LS55
35.00
5.00
5.00
SCAN
1
20
100
100
0
500
0
2
0
1
7
ON
500 450 
1 0 0
#HDR
-1
-1
#GR
NM

0.00002384185791015625
0.0
250.000000
0.500000
390
8
4.183000
-4.504219
#DATA
250.000000	4.183000  
250.500000	1.266454  
251.000000	-1.227448 
251.500000	-3.002646 
252.000000	-4.098532 
252.500000	-4.504219 
253.000000	-4.482537 
253.500000	-3.981295 
254.000000	-3.532759 
254.500000	-3.518622 
255.000000	-3.502581 
255.500000	-3.335987 
256.000000	-3.244500 
256.500000	-2.991375 
257.000000	-2.538089 
257.500000	-2.144415 
258.000000	-1.677309 
258.500000	-1.332552 
259.000000	-1.539804 
259.500000	-2.052195 
260.000000	-2.534418 
260.500000	-3.177496 
261.000000	-3.614753 
261.500000	-3.807570 
262.000000	-3.796921 
262.500000	-3.483301 
263.000000	-2.905357 
263.500000	-2.505466 
264.000000	-2.464223 
264.500000	-2.426522 
265.000000	-2.487204 
265.500000	-2.658101 
266.000000	-2.922616 
266.500000	-3.117221 
267.000000	-2.982271 
267.500000	-2.713669 
268.000000	-2.311098 
268.500000	-2.162897 
269.000000	-2.058398 
269.500000	-2.108256 
270.000000	-2.125114 
270.500000	-2.290690 
271.000000	-2.539306 
271.500000	-2.515742 
272.000000	-2.286747 
272.500000	-1.829440 
273.000000	-1.431480 
273.500000	-0.954083 
274.000000	-0.669995 
274.500000	-0.203611 
275.000000	0.116265  
275.500000	0.214366  
276.000000	0.092224  
276.500000	-0.196347 
277.000000	-0.447215 
277.500000	-0.929616 
278.000000	-1.438282 
278.500000	-1.897375 
279.000000	-1.897759 
279.500000	-1.941020 
280.000000	-1.638251 
280.500000	-1.042316 
281.000000	-0.458173 
281.500000	0.145397  
282.000000	0.488317  
282.500000	0.303680  
283.000000	0.012549  
283.500000	-0.309316 
284.000000	-0.950128 
284.500000	-1.361817 
285.000000	-1.375123 
285.500000	-1.332363 
286.000000	-1.225850 
286.500000	-0.920159 
287.000000	-0.883438 
287.500000	-0.851576 
288.000000	-0.858959 
288.500000	-0.996746 
289.000000	-1.016371 
289.500000	-0.880890 
290.000000	-0.868524 
290.500000	-0.993744 
291.000000	-0.919691 
291.500000	-0.936069 
292.000000	-1.176185 
292.500000	-1.700415 
293.000000	-2.555769 
293.500000	-3.188225 
294.000000	-3.471207 
294.500000	-3.573509 
295.000000	-3.313937 
295.500000	-2.531809 
296.000000	-1.422084 
296.500000	-0.475605 
297.000000	0.374851  
297.500000	0.791588  
298.000000	0.928330  
298.500000	0.836087  
299.000000	0.532674  
299.500000	0.193793  
300.000000	-0.082338 
300.500000	-0.151528 
301.000000	-0.018592 
301.500000	0.235914  
302.000000	0.449772  
302.500000	0.610438  
303.000000	0.669214  
303.500000	0.773426  
304.000000	0.914890  
304.500000	1.282059  
305.000000	1.613547  
305.500000	1.983828  
306.000000	2.092898  
306.500000	2.085337  
307.000000	1.991533  
307.500000	1.712427  
308.000000	1.474358  
308.500000	1.171628  
309.000000	1.251159  
309.500000	1.266572  
310.000000	1.452273  
310.500000	1.508396  
311.000000	1.636489  
311.500000	1.797081  
312.000000	2.043820  
312.500000	2.261413  
313.000000	2.255267  
313.500000	2.612728  
314.000000	2.915066  
314.500000	3.058498  
315.000000	2.975699  
315.500000	2.710575  
316.000000	2.289906  
316.500000	1.831887  
317.000000	1.164139  
317.500000	0.402093  
318.000000	-0.022965 
318.500000	-0.339862 
319.000000	-0.570448 
319.500000	-0.509431 
320.000000	-0.389999 
320.500000	0.003761  
321.000000	0.553494  
321.500000	0.975757  
322.000000	1.260532  
322.500000	1.690673  
323.000000	2.016160  
323.500000	2.102207  
324.000000	2.338659  
324.500000	2.344576  
325.000000	2.429663  
325.500000	2.473256  
326.000000	2.466775  
326.500000	2.502466  
327.000000	2.675392  
327.500000	2.700372  
328.000000	2.725191  
328.500000	2.831894  
329.000000	2.840724  
329.500000	2.820374  
330.000000	2.604444  
330.500000	2.385708  
331.000000	2.216470  
331.500000	2.153177  
332.000000	1.940356  
332.500000	1.903741  
333.000000	1.895913  
333.500000	1.893904  
334.000000	1.846505  
334.500000	1.646403  
335.000000	1.543931  
335.500000	1.608513  
336.000000	1.829183  
336.500000	1.996198  
337.000000	2.168413  
337.500000	2.258109  
338.000000	2.253942  
338.500000	2.022108  
339.000000	1.520934  
339.500000	1.116651  
340.000000	0.806960  
340.500000	0.685285  
341.000000	0.775581  
341.500000	0.951610  
342.000000	1.141365  
342.500000	1.493142  
343.000000	1.745662  
343.500000	1.793499  
344.000000	1.792674  
344.500000	1.685446  
345.000000	1.572192  
345.500000	1.607675  
346.000000	1.560012  
346.500000	1.325606  
347.000000	1.224379  
347.500000	1.107948  
348.000000	0.963382  
348.500000	0.779226  
349.000000	0.585030  
349.500000	0.466375  
350.000000	0.536473  
350.500000	0.626704  
351.000000	0.591867  
351.500000	0.625397  
352.000000	0.638863  
352.500000	0.591692  
353.000000	0.444875  
353.500000	0.278575  
354.000000	0.149196  
354.500000	0.174826  
355.000000	0.202166  
355.500000	0.236523  
356.000000	0.409301  
356.500000	0.568000  
357.000000	0.641681  
357.500000	0.593999  
358.000000	0.450408  
358.500000	0.237088  
359.000000	0.046805  
359.500000	-0.148577 
360.000000	-0.374467 
360.500000	-0.366625 
361.000000	-0.232623 
361.500000	-0.060713 
362.000000	0.175399  
362.500000	0.454390  
363.000000	0.667671  
363.500000	0.821619  
364.000000	0.880760  
364.500000	0.717676  
365.000000	0.505628  
365.500000	0.231361  
366.000000	-0.097870 
366.500000	-0.360899 
367.000000	-0.443178 
367.500000	-0.462730 
368.000000	-0.384828 
368.500000	-0.154219 
369.000000	0.053020  
369.500000	0.200903  
370.000000	0.310405  
370.500000	0.283668  
371.000000	0.206058  
371.500000	0.187139  
372.000000	0.169006  
372.500000	0.121754  
373.000000	0.157529  
373.500000	0.250797  
374.000000	0.343032  
374.500000	0.506042  
375.000000	0.612543  
375.500000	0.671581  
376.000000	0.723898  
376.500000	0.823185  
377.000000	0.813279  
377.500000	0.812558  
378.000000	0.809640  
378.500000	0.789287  
379.000000	0.830081  
379.500000	0.787472  
380.000000	0.729642  
380.500000	0.620273  
381.000000	0.614766  
381.500000	0.534469  
382.000000	0.499272  
382.500000	0.423341  
383.000000	0.368221  
383.500000	0.390959  
384.000000	0.405367  
384.500000	0.478057  
385.000000	0.543786  
385.500000	0.695552  
386.000000	0.760563  
386.500000	0.864664  
387.000000	0.906652  
387.500000	0.921059  
388.000000	0.933260  
388.500000	0.883258  
389.000000	0.826299  
389.500000	0.747021  
390.000000	0.690054  
390.500000	0.617656  
391.000000	0.607841  
391.500000	0.613198  
392.000000	0.576475  
392.500000	0.507649  
393.000000	0.424315  
393.500000	0.360382  
394.000000	0.322425  
394.500000	0.293621  
395.000000	0.303543  
395.500000	0.377122  
396.000000	0.518511  
396.500000	0.612511  
397.000000	0.645424  
397.500000	0.633337  
398.000000	0.580359  
398.500000	0.542953  
399.000000	0.466176  
399.500000	0.343936  
400.000000	0.278168  
400.500000	0.303376  
401.000000	0.357367  
401.500000	0.407419  
402.000000	0.465231  
402.500000	0.476486  
403.000000	0.465252  
403.500000	0.412389  
404.000000	0.305808  
404.500000	0.211149  
405.000000	0.131921  
405.500000	0.078846  
406.000000	0.014663  
406.500000	0.042500  
407.000000	0.118524  
407.500000	0.175173  
408.000000	0.228334  
408.500000	0.281749  
409.000000	0.334817  
409.500000	0.374218  
410.000000	0.417770  
410.500000	0.428071  
411.000000	0.465001  
411.500000	0.539099  
412.000000	0.551515  
412.500000	0.555638  
413.000000	0.575633  
413.500000	0.608262  
414.000000	0.629195  
414.500000	0.663144  
415.000000	0.679042  
415.500000	0.674724  
416.000000	0.670718  
416.500000	0.572834  
417.000000	0.484037  
417.500000	0.390866  
418.000000	0.329537  
418.500000	0.270219  
419.000000	0.231060  
419.500000	0.235771  
420.000000	0.271313  
420.500000	0.314872  
421.000000	0.317449  
421.500000	0.329990  
422.000000	0.319440  
422.500000	0.340008  
423.000000	0.361771  
423.500000	0.387290  
424.000000	0.414842  
424.500000	0.420016  
425.000000	0.414826  
425.500000	0.383483  
426.000000	0.346928  
426.500000	0.304629  
427.000000	0.272078  
427.500000	0.268060  
428.000000	0.280156  
428.500000	0.317465  
429.000000	0.337733  
429.500000	0.358067  
430.000000	0.377677  
430.500000	0.381390  
431.000000	0.382655  
431.500000	0.363671  
432.000000	0.357449  
432.500000	0.356371  
433.000000	0.374644  
433.500000	0.380312  
434.000000	0.389099  
434.500000	0.417796  
435.000000	0.453815  
435.500000	0.506098  
436.000000	0.543298  
436.500000	0.568933  
437.000000	0.576062  
437.500000	0.564172  
438.000000	0.549762  
438.500000	0.516857  
439.000000	0.495818  
439.500000	0.488158  
440.000000	0.491990  
440.500000	0.499192  
441.000000	0.502786  
441.500000	0.500800  
442.000000	0.468460  
442.500000	0.434019  
443.000000	0.383109  
443.500000	0.345131  
444.000000	0.328384  
444.500000	0.365765  

