PE FL                   SPECTRUM    ASCII       PEDS        1.60        
  -1
PP54A0~1
23/10/10
14:34:34.00
23/10/10
14:34:34.00


444.500000
1









LS55
40.00
5.00
5.00
SCAN
1
20
100
100
0
500
0
2
0
1
7
ON
500 450 
1 0 0
#HDR
-1
-1
#GR
NM

0.00002384185791015625
0.0
250.000000
0.500000
390
8
2.525377
-5.000000
#DATA
250.000000	-5.000000 
250.500000	-4.606578 
251.000000	-4.270288 
251.500000	-4.077147 
252.000000	-4.471790 
252.500000	-4.733489 
253.000000	-4.712783 
253.500000	-4.236586 
254.000000	-3.384926 
254.500000	-2.308087 
255.000000	-1.108818 
255.500000	0.025567  
256.000000	1.050924  
256.500000	1.087063  
257.000000	0.765658  
257.500000	0.231128  
258.000000	-0.196962 
258.500000	-0.527229 
259.000000	-0.777097 
259.500000	-0.906447 
260.000000	-1.111085 
260.500000	-1.093626 
261.000000	-1.609548 
261.500000	-2.335496 
262.000000	-3.234390 
262.500000	-3.912689 
263.000000	-4.457412 
263.500000	-4.724243 
264.000000	-4.591658 
264.500000	-4.262949 
265.000000	-3.750662 
265.500000	-3.287956 
266.000000	-2.825804 
266.500000	-2.477508 
267.000000	-2.203015 
267.500000	-2.088202 
268.000000	-1.831732 
268.500000	-1.348101 
269.000000	-0.574670 
269.500000	0.473931  
270.000000	1.165398  
270.500000	1.928208  
271.000000	2.332599  
271.500000	2.178313  
272.000000	1.511484  
272.500000	0.297181  
273.000000	-0.729511 
273.500000	-1.290959 
274.000000	-1.206490 
274.500000	-1.298975 
275.000000	-0.877740 
275.500000	-0.163780 
276.000000	0.351147  
276.500000	0.673659  
277.000000	0.440217  
277.500000	0.045343  
278.000000	-0.189915 
278.500000	-0.139020 
279.000000	-0.327482 
279.500000	-0.408059 
280.000000	-0.356190 
280.500000	-0.336271 
281.000000	-0.169467 
281.500000	-0.045258 
282.000000	-0.120649 
282.500000	-0.451718 
283.000000	-0.629244 
283.500000	-0.595353 
284.000000	-0.519951 
284.500000	-0.430985 
285.000000	-0.474480 
285.500000	-0.649389 
286.000000	-0.680784 
286.500000	-0.861351 
287.000000	-1.438276 
287.500000	-2.264160 
288.000000	-2.950883 
288.500000	-3.311398 
289.000000	-3.393063 
289.500000	-3.316536 
290.000000	-3.025297 
290.500000	-2.608159 
291.000000	-1.871953 
291.500000	-1.066220 
292.000000	-0.586906 
292.500000	-0.304820 
293.000000	0.014256  
293.500000	0.270577  
294.000000	0.274812  
294.500000	0.019739  
295.000000	-0.537900 
295.500000	-1.218568 
296.000000	-1.471581 
296.500000	-1.547326 
297.000000	-1.422655 
297.500000	-0.862833 
298.000000	0.004165  
298.500000	0.813701  
299.000000	1.271216  
299.500000	1.057440  
300.000000	0.526010  
300.500000	-0.065526 
301.000000	-0.760783 
301.500000	-1.340170 
302.000000	-1.519275 
302.500000	-1.448224 
303.000000	-1.061546 
303.500000	-0.670085 
304.000000	-0.622922 
304.500000	-0.626422 
305.000000	-0.775000 
305.500000	-0.917528 
306.000000	-1.061979 
306.500000	-0.990794 
307.000000	-1.112235 
307.500000	-1.079311 
308.000000	-0.935738 
308.500000	-0.999545 
309.000000	-0.931104 
309.500000	-1.005172 
310.000000	-0.862798 
310.500000	-0.518464 
311.000000	-0.005203 
311.500000	0.225199  
312.000000	0.291509  
312.500000	0.186653  
313.000000	0.012144  
313.500000	-0.041321 
314.000000	-0.372152 
314.500000	-0.708422 
315.000000	-0.829498 
315.500000	-0.762657 
316.000000	-0.627097 
316.500000	-0.399088 
317.000000	-0.274649 
317.500000	-0.125653 
318.000000	0.259943  
318.500000	0.668121  
319.000000	0.972000  
319.500000	1.211148  
320.000000	1.308746  
320.500000	1.306063  
321.000000	1.485941  
321.500000	1.601575  
322.000000	1.601133  
322.500000	1.593651  
323.000000	1.698832  
323.500000	1.801901  
324.000000	1.848956  
324.500000	1.821771  
325.000000	1.491378  
325.500000	1.348557  
326.000000	1.434874  
326.500000	1.544407  
327.000000	1.661209  
327.500000	1.661155  
328.000000	1.570283  
328.500000	1.488256  
329.000000	1.519285  
329.500000	1.403198  
330.000000	1.115470  
330.500000	1.015369  
331.000000	1.060744  
331.500000	1.259029  
332.000000	1.345048  
332.500000	1.293360  
333.000000	1.155576  
333.500000	1.165137  
334.000000	1.149693  
334.500000	0.999125  
335.000000	0.864959  
335.500000	0.867374  
336.000000	1.012097  
336.500000	1.110910  
337.000000	1.094542  
337.500000	1.008485  
338.000000	0.927165  
338.500000	0.872046  
339.000000	0.818597  
339.500000	0.747281  
340.000000	0.729112  
340.500000	0.891911  
341.000000	1.062271  
341.500000	1.143252  
342.000000	1.206379  
342.500000	1.424179  
343.000000	1.642803  
343.500000	1.838310  
344.000000	1.909040  
344.500000	1.756398  
345.000000	1.649499  
345.500000	1.583189  
346.000000	1.383467  
346.500000	1.084269  
347.000000	0.968978  
347.500000	1.125044  
348.000000	1.428818  
348.500000	1.759794  
349.000000	1.928372  
349.500000	2.136868  
350.000000	2.420355  
350.500000	2.525377  
351.000000	2.334030  
351.500000	2.059839  
352.000000	1.936134  
352.500000	1.969625  
353.000000	2.044253  
353.500000	2.041911  
354.000000	2.025881  
354.500000	2.147150  
355.000000	2.161949  
355.500000	2.053566  
356.000000	1.851031  
356.500000	1.715181  
357.000000	1.743102  
357.500000	1.855624  
358.000000	1.939274  
358.500000	1.987894  
359.000000	2.160632  
359.500000	2.273496  
360.000000	2.299158  
360.500000	2.192891  
361.000000	1.984803  
361.500000	1.812557  
362.000000	1.679905  
362.500000	1.483657  
363.000000	1.259857  
363.500000	1.082765  
364.000000	0.975987  
364.500000	0.970359  
365.000000	1.011064  
365.500000	1.095687  
366.000000	1.229479  
366.500000	1.457578  
367.000000	1.636423  
367.500000	1.727047  
368.000000	1.724533  
368.500000	1.644227  
369.000000	1.510971  
369.500000	1.314194  
370.000000	1.109142  
370.500000	0.889728  
371.000000	0.751148  
371.500000	0.651528  
372.000000	0.550364  
372.500000	0.535131  
373.000000	0.600584  
373.500000	0.688415  
374.000000	0.736306  
374.500000	0.753788  
375.000000	0.657481  
375.500000	0.535300  
376.000000	0.442124  
376.500000	0.346011  
377.000000	0.307386  
377.500000	0.389229  
378.000000	0.545532  
378.500000	0.732590  
379.000000	0.906365  
379.500000	0.935456  
380.000000	0.886057  
380.500000	0.817286  
381.000000	0.768416  
381.500000	0.702900  
382.000000	0.620934  
382.500000	0.539935  
383.000000	0.495582  
383.500000	0.522496  
384.000000	0.491794  
384.500000	0.460108  
385.000000	0.432333  
385.500000	0.462830  
386.000000	0.514738  
386.500000	0.528237  
387.000000	0.438203  
387.500000	0.331025  
388.000000	0.255855  
388.500000	0.162548  
389.000000	0.104602  
389.500000	0.099215  
390.000000	0.150237  
390.500000	0.273022  
391.000000	0.447174  
391.500000	0.541618  
392.000000	0.573871  
392.500000	0.558028  
393.000000	0.503096  
393.500000	0.461924  
394.000000	0.479383  
394.500000	0.533872  
395.000000	0.604488  
395.500000	0.704026  
396.000000	0.771589  
396.500000	0.823748  
397.000000	0.806018  
397.500000	0.723727  
398.000000	0.617698  
398.500000	0.552100  
399.000000	0.529659  
399.500000	0.503450  
400.000000	0.499637  
400.500000	0.499000  
401.000000	0.545592  
401.500000	0.560732  
402.000000	0.531584  
402.500000	0.499614  
403.000000	0.463495  
403.500000	0.447244  
404.000000	0.432111  
404.500000	0.465413  
405.000000	0.491845  
405.500000	0.562746  
406.000000	0.617593  
406.500000	0.661874  
407.000000	0.698393  
407.500000	0.695076  
408.000000	0.638768  
408.500000	0.530682  
409.000000	0.468772  
409.500000	0.404407  
410.000000	0.357682  
410.500000	0.329221  
411.000000	0.328650  
411.500000	0.341802  
412.000000	0.360469  
412.500000	0.336537  
413.000000	0.267213  
413.500000	0.214375  
414.000000	0.174533  
414.500000	0.118560  
415.000000	0.065058  
415.500000	0.047100  
416.000000	0.052399  
416.500000	0.114087  
417.000000	0.220012  
417.500000	0.296133  
418.000000	0.352998  
418.500000	0.423300  
419.000000	0.458972  
419.500000	0.428163  
420.000000	0.353932  
420.500000	0.241493  
421.000000	0.146056  
421.500000	0.122318  
422.000000	0.124928  
422.500000	0.155008  
423.000000	0.234001  
423.500000	0.352501  
424.000000	0.440262  
424.500000	0.485840  
425.000000	0.463374  
425.500000	0.408005  
426.000000	0.346414  
426.500000	0.269776  
427.000000	0.173815  
427.500000	0.093271  
428.000000	0.058730  
428.500000	0.039133  
429.000000	0.036643  
429.500000	0.039343  
430.000000	0.070542  
430.500000	0.118937  
431.000000	0.173003  
431.500000	0.199640  
432.000000	0.225159  
432.500000	0.249537  
433.000000	0.260343  
433.500000	0.263980  
434.000000	0.261951  
434.500000	0.264625  
435.000000	0.289062  
435.500000	0.341313  
436.000000	0.373834  
436.500000	0.411397  
437.000000	0.441960  
437.500000	0.448515  
438.000000	0.437238  
438.500000	0.416256  
439.000000	0.388443  
439.500000	0.372956  
440.000000	0.372795  
440.500000	0.369743  
441.000000	0.394658  
441.500000	0.433465  
442.000000	0.454701  
442.500000	0.470326  
443.000000	0.482148  
443.500000	0.478880  
444.000000	0.471901  
444.500000	0.447218  

