PE FL                   SPECTRUM    ASCII       PEDS        1.60        
  -1
PP24A0~1
23/10/10
14:32:32.00
23/10/10
14:32:32.00


444.500000
1









LS55
25.00
5.00
5.00
SCAN
1
20
100
100
0
500
0
2
0
1
7
ON
500 450 
1 0 0
#HDR
-1
-1
#GR
NM

0.00002384185791015625
0.0
250.000000
0.500000
390
8
5.133471
-3.440000
#DATA
250.000000	-3.440000 
250.500000	-1.300917 
251.000000	0.453972  
251.500000	1.417795  
252.000000	2.053518  
252.500000	1.800956  
253.000000	1.350623  
253.500000	0.846792  
254.000000	0.817756  
254.500000	0.987263  
255.000000	0.931861  
255.500000	0.747131  
256.000000	0.375446  
256.500000	0.458691  
257.000000	0.498459  
257.500000	0.348213  
258.000000	0.560061  
258.500000	1.190126  
259.000000	1.427984  
259.500000	1.291672  
260.000000	0.846812  
260.500000	-0.048703 
261.000000	-0.944691 
261.500000	-1.545480 
262.000000	-2.032142 
262.500000	-2.130122 
263.000000	-1.847252 
263.500000	-1.683477 
264.000000	-1.397994 
264.500000	-1.285482 
265.000000	-1.365559 
265.500000	-1.574680 
266.000000	-1.700601 
266.500000	-1.732700 
267.000000	-1.574221 
267.500000	-1.606444 
268.000000	-1.753558 
268.500000	-1.837047 
269.000000	-2.168310 
269.500000	-2.274976 
270.000000	-2.447744 
270.500000	-2.308921 
271.000000	-2.076187 
271.500000	-1.495918 
272.000000	-1.456628 
272.500000	-1.234519 
273.000000	-0.891027 
273.500000	-1.012490 
274.000000	-0.771616 
274.500000	-0.706348 
275.000000	-0.279474 
275.500000	-0.010784 
276.000000	0.575158  
276.500000	0.540419  
277.000000	0.053371  
277.500000	-0.164739 
278.000000	-0.751440 
278.500000	-0.753071 
279.000000	-0.736005 
279.500000	0.052030  
280.000000	1.023741  
280.500000	2.656761  
281.000000	4.068668  
281.500000	4.696659  
282.000000	5.133471  
282.500000	4.682612  
283.000000	4.173569  
283.500000	3.365755  
284.000000	2.798647  
284.500000	2.327736  
285.000000	2.364914  
285.500000	2.733467  
286.000000	2.751464  
286.500000	2.506708  
287.000000	1.712688  
287.500000	0.726710  
288.000000	-0.047745 
288.500000	-0.565618 
289.000000	-0.823937 
289.500000	-0.801080 
290.000000	0.132046  
290.500000	1.580614  
291.000000	2.817497  
291.500000	3.513502  
292.000000	3.620494  
292.500000	3.518697  
293.000000	3.008697  
293.500000	2.247014  
294.000000	0.877348  
294.500000	-0.145611 
295.000000	-0.826196 
295.500000	-1.127817 
296.000000	-1.185306 
296.500000	-0.980135 
297.000000	-0.575927 
297.500000	0.335814  
298.000000	1.496383  
298.500000	2.284722  
299.000000	2.966202  
299.500000	3.163643  
300.000000	3.210731  
300.500000	3.063682  
301.000000	2.925890  
301.500000	2.474614  
302.000000	2.299145  
302.500000	2.508273  
303.000000	2.799024  
303.500000	3.337565  
304.000000	3.559868  
304.500000	3.676322  
305.000000	3.599989  
305.500000	3.342851  
306.000000	2.581645  
306.500000	1.744165  
307.000000	1.191626  
307.500000	0.623312  
308.000000	0.395448  
308.500000	0.327448  
309.000000	0.729447  
309.500000	1.159299  
310.000000	1.464320  
310.500000	1.642330  
311.000000	1.543123  
311.500000	1.473877  
312.000000	1.281451  
312.500000	0.922355  
313.000000	0.674367  
313.500000	0.827956  
314.000000	1.016386  
314.500000	1.081661  
315.000000	1.191926  
315.500000	1.053473  
316.000000	0.773423  
316.500000	0.503091  
317.000000	0.013108  
317.500000	-0.429989 
318.000000	-0.574936 
318.500000	-0.502024 
319.000000	-0.601662 
319.500000	-0.604778 
320.000000	-0.689150 
320.500000	-0.766545 
321.000000	-0.768214 
321.500000	-0.944146 
322.000000	-0.855037 
322.500000	-0.478816 
323.000000	0.192210  
323.500000	0.767880  
324.000000	1.266694  
324.500000	1.534450  
325.000000	1.691511  
325.500000	1.705625  
326.000000	1.242524  
326.500000	0.720859  
327.000000	0.217300  
327.500000	0.053488  
328.000000	0.048037  
328.500000	0.107108  
329.000000	0.117459  
329.500000	0.166009  
330.000000	0.325573  
330.500000	0.091044  
331.000000	-0.139899 
331.500000	-0.448988 
332.000000	-0.498153 
332.500000	-0.453694 
333.000000	-0.282811 
333.500000	-0.045865 
334.000000	0.160920  
334.500000	0.544758  
335.000000	0.741249  
335.500000	0.834104  
336.000000	0.741782  
336.500000	0.664046  
337.000000	0.496354  
337.500000	0.305371  
338.000000	0.141043  
338.500000	-0.103651 
339.000000	-0.194167 
339.500000	-0.273189 
340.000000	-0.367750 
340.500000	-0.452204 
341.000000	-0.511289 
341.500000	-0.591707 
342.000000	-0.593852 
342.500000	-0.516463 
343.000000	-0.447010 
343.500000	-0.325928 
344.000000	-0.155987 
344.500000	0.075334  
345.000000	0.346513  
345.500000	0.546936  
346.000000	0.587423  
346.500000	0.603495  
347.000000	0.556608  
347.500000	0.431111  
348.000000	0.215362  
348.500000	-0.033845 
349.000000	-0.213689 
349.500000	-0.326737 
350.000000	-0.221194 
350.500000	-0.068522 
351.000000	0.173697  
351.500000	0.423459  
352.000000	0.656701  
352.500000	0.842742  
353.000000	0.948213  
353.500000	0.935902  
354.000000	0.668613  
354.500000	0.386838  
355.000000	0.131769  
355.500000	-0.040555 
356.000000	-0.136184 
356.500000	-0.220185 
357.000000	-0.187208 
357.500000	-0.070014 
358.000000	0.063060  
358.500000	0.092893  
359.000000	0.037768  
359.500000	-0.036515 
360.000000	-0.035564 
360.500000	0.011985  
361.000000	0.161884  
361.500000	0.435231  
362.000000	0.719053  
362.500000	0.915964  
363.000000	1.069221  
363.500000	1.026743  
364.000000	0.805130  
364.500000	0.570536  
365.000000	0.243574  
365.500000	0.019640  
366.000000	0.020988  
366.500000	0.143225  
367.000000	0.275050  
367.500000	0.448850  
368.000000	0.565627  
368.500000	0.563367  
369.000000	0.550415  
369.500000	0.411176  
370.000000	0.255023  
370.500000	0.176795  
371.000000	0.131790  
371.500000	0.131083  
372.000000	0.158029  
372.500000	0.191863  
373.000000	0.198798  
373.500000	0.189190  
374.000000	0.113776  
374.500000	0.015934  
375.000000	0.017025  
375.500000	0.052372  
376.000000	0.154744  
376.500000	0.246871  
377.000000	0.392980  
377.500000	0.588298  
378.000000	0.745156  
378.500000	0.733032  
379.000000	0.604312  
379.500000	0.524882  
380.000000	0.402006  
380.500000	0.288381  
381.000000	0.129141  
381.500000	-0.030674 
382.000000	-0.100349 
382.500000	-0.023520 
383.000000	0.043031  
383.500000	0.059006  
384.000000	0.169758  
384.500000	0.308927  
385.000000	0.498358  
385.500000	0.611768  
386.000000	0.619375  
386.500000	0.545434  
387.000000	0.502446  
387.500000	0.427621  
388.000000	0.308828  
388.500000	0.232929  
389.000000	0.191658  
389.500000	0.233393  
390.000000	0.346791  
390.500000	0.428982  
391.000000	0.469542  
391.500000	0.522571  
392.000000	0.558721  
392.500000	0.524206  
393.000000	0.435698  
393.500000	0.348181  
394.000000	0.260802  
394.500000	0.226269  
395.000000	0.230506  
395.500000	0.293769  
396.000000	0.428469  
396.500000	0.607880  
397.000000	0.759808  
397.500000	0.872747  
398.000000	0.976732  
398.500000	1.018509  
399.000000	1.029006  
399.500000	0.994042  
400.000000	0.973159  
400.500000	0.976273  
401.000000	1.007004  
401.500000	1.048334  
402.000000	1.053559  
402.500000	1.040600  
403.000000	1.012494  
403.500000	0.968148  
404.000000	0.901299  
404.500000	0.835135  
405.000000	0.794988  
405.500000	0.747622  
406.000000	0.737606  
406.500000	0.711287  
407.000000	0.683667  
407.500000	0.654826  
408.000000	0.636615  
408.500000	0.635147  
409.000000	0.615933  
409.500000	0.668590  
410.000000	0.688043  
410.500000	0.698367  
411.000000	0.685614  
411.500000	0.690820  
412.000000	0.636320  
412.500000	0.576206  
413.000000	0.532266  
413.500000	0.501697  
414.000000	0.554590  
414.500000	0.635072  
415.000000	0.701520  
415.500000	0.761292  
416.000000	0.869713  
416.500000	0.920941  
417.000000	0.944908  
417.500000	0.924739  
418.000000	0.895970  
418.500000	0.873752  
419.000000	0.861075  
419.500000	0.804236  
420.000000	0.744947  
420.500000	0.716581  
421.000000	0.663764  
421.500000	0.597926  
422.000000	0.493241  
422.500000	0.446857  
423.000000	0.410040  
423.500000	0.401065  
424.000000	0.394964  
424.500000	0.421245  
425.000000	0.462881  
425.500000	0.523970  
426.000000	0.567142  
426.500000	0.556592  
427.000000	0.564361  
427.500000	0.551658  
428.000000	0.534951  
428.500000	0.513276  
429.000000	0.512786  
429.500000	0.519294  
430.000000	0.549245  
430.500000	0.580843  
431.000000	0.584631  
431.500000	0.593789  
432.000000	0.574787  
432.500000	0.543323  
433.000000	0.517073  
433.500000	0.508104  
434.000000	0.512511  
434.500000	0.541774  
435.000000	0.580777  
435.500000	0.628590  
436.000000	0.679244  
436.500000	0.708434  
437.000000	0.712858  
437.500000	0.702799  
438.000000	0.680556  
438.500000	0.660451  
439.000000	0.639500  
439.500000	0.629629  
440.000000	0.640623  
440.500000	0.661328  
441.000000	0.700928  
441.500000	0.733849  
442.000000	0.765131  
442.500000	0.782719  
443.000000	0.771030  
443.500000	0.719692  
444.000000	0.653493  
444.500000	0.584141  

