PE FL                   SPECTRUM    ASCII       PEDS        1.60        
  -1
PP34A0~1
23/10/10
14:33:13.00
23/10/10
14:33:13.00


444.500000
1









LS55
30.00
5.00
5.00
SCAN
1
20
100
100
0
500
0
2
0
1
7
ON
500 450 
1 0 0
#HDR
-1
-1
#GR
NM

0.00002384185791015625
0.0
250.000000
0.500000
390
8
5.931315
-3.896093
#DATA
250.000000	-3.513000 
250.500000	-2.953454 
251.000000	-2.791810 
251.500000	-2.942442 
252.000000	-3.113515 
252.500000	-3.410606 
253.000000	-3.701095 
253.500000	-3.896093 
254.000000	-3.861223 
254.500000	-3.545156 
255.000000	-3.026965 
255.500000	-2.522327 
256.000000	-2.167649 
256.500000	-1.823914 
257.000000	-1.845064 
257.500000	-1.757649 
258.000000	-1.625022 
258.500000	-1.203334 
259.000000	-0.796423 
259.500000	-0.450741 
260.000000	-0.202124 
260.500000	-0.107799 
261.000000	-0.248580 
261.500000	-0.742118 
262.000000	-1.230028 
262.500000	-1.757074 
263.000000	-1.986943 
263.500000	-2.037318 
264.000000	-2.087743 
264.500000	-2.070122 
265.000000	-2.119797 
265.500000	-2.430420 
266.000000	-2.526896 
266.500000	-2.528196 
267.000000	-2.465202 
267.500000	-2.339531 
268.000000	-1.749361 
268.500000	-1.045195 
269.000000	0.013454  
269.500000	0.667812  
270.000000	1.063830  
270.500000	1.677336  
271.000000	2.065815  
271.500000	2.430530  
272.000000	2.493124  
272.500000	2.399433  
273.000000	2.070416  
273.500000	2.225249  
274.000000	1.999138  
274.500000	1.409276  
275.000000	1.029237  
275.500000	0.573491  
276.000000	0.322382  
276.500000	0.079819  
277.000000	-0.083208 
277.500000	-0.365715 
278.000000	0.014965  
278.500000	0.616704  
279.000000	1.188926  
279.500000	1.815460  
280.000000	2.149618  
280.500000	2.468340  
281.000000	2.531450  
281.500000	2.342764  
282.000000	1.905417  
282.500000	1.529417  
283.000000	1.196254  
283.500000	0.904751  
284.000000	0.635365  
284.500000	0.228269  
285.000000	0.262759  
285.500000	0.066129  
286.000000	-0.130271 
286.500000	-0.155482 
287.000000	0.081114  
287.500000	0.348017  
288.000000	0.702662  
288.500000	1.086147  
289.000000	1.210242  
289.500000	1.348448  
290.000000	1.431415  
290.500000	1.255655  
291.000000	0.901086  
291.500000	0.385088  
292.000000	-0.241929 
292.500000	-0.774453 
293.000000	-0.933893 
293.500000	-0.843236 
294.000000	-0.832702 
294.500000	-0.252009 
295.000000	0.868857  
295.500000	1.871427  
296.000000	2.514229  
296.500000	2.673222  
297.000000	2.478300  
297.500000	2.243295  
298.000000	2.090788  
298.500000	1.289463  
299.000000	0.825732  
299.500000	1.133353  
300.000000	1.749184  
300.500000	2.446471  
301.000000	3.126243  
301.500000	3.773492  
302.000000	4.444667  
302.500000	5.307844  
303.000000	5.536483  
303.500000	5.520469  
304.000000	5.715385  
304.500000	5.878399  
305.000000	5.931315  
305.500000	5.819649  
306.000000	5.417561  
306.500000	4.750670  
307.000000	4.385623  
307.500000	4.014728  
308.000000	3.357762  
308.500000	2.592732  
309.000000	1.964239  
309.500000	1.787104  
310.000000	1.834999  
310.500000	2.008743  
311.000000	2.014236  
311.500000	2.192959  
312.000000	2.818421  
312.500000	3.364329  
313.000000	3.634208  
313.500000	3.420696  
314.000000	3.336867  
314.500000	3.133415  
315.000000	2.814876  
315.500000	2.359727  
316.000000	1.874662  
316.500000	1.902969  
317.000000	2.226076  
317.500000	2.621481  
318.000000	2.892808  
318.500000	3.427533  
319.000000	3.830937  
319.500000	4.025258  
320.000000	3.931088  
320.500000	3.675364  
321.000000	3.425981  
321.500000	3.085261  
322.000000	2.715901  
322.500000	2.341636  
323.000000	2.315216  
323.500000	2.558236  
324.000000	2.806554  
324.500000	2.885891  
325.000000	2.926001  
325.500000	2.875904  
326.000000	2.662190  
326.500000	2.175025  
327.000000	1.556760  
327.500000	0.999980  
328.000000	0.680448  
328.500000	0.676892  
329.000000	0.948812  
329.500000	1.313219  
330.000000	1.797978  
330.500000	2.092465  
331.000000	2.018415  
331.500000	1.719633  
332.000000	1.121167  
332.500000	0.466062  
333.000000	-0.117425 
333.500000	-0.442370 
334.000000	-0.601295 
334.500000	-0.389478 
335.000000	-0.055387 
335.500000	0.148916  
336.000000	0.347157  
336.500000	0.407818  
337.000000	0.421750  
337.500000	0.329663  
338.000000	0.170238  
338.500000	-0.040981 
339.000000	0.041171  
339.500000	0.221665  
340.000000	0.373352  
340.500000	0.486797  
341.000000	0.628847  
341.500000	0.891652  
342.000000	1.160256  
342.500000	1.337850  
343.000000	1.362626  
343.500000	1.351509  
344.000000	1.286213  
344.500000	1.183587  
345.000000	0.871654  
345.500000	0.565270  
346.000000	0.343110  
346.500000	0.215877  
347.000000	0.117049  
347.500000	0.041713  
348.000000	-0.037480 
348.500000	0.021642  
349.000000	0.251689  
349.500000	0.374855  
350.000000	0.634813  
350.500000	0.909245  
351.000000	1.132469  
351.500000	1.272407  
352.000000	1.234427  
352.500000	0.995636  
353.000000	0.689835  
353.500000	0.404990  
354.000000	0.097678  
354.500000	0.015283  
355.000000	0.104944  
355.500000	0.381303  
356.000000	0.752267  
356.500000	0.976015  
357.000000	1.070258  
357.500000	1.088330  
358.000000	0.987040  
358.500000	0.725822  
359.000000	0.522525  
359.500000	0.357250  
360.000000	0.202306  
360.500000	0.184748  
361.000000	0.193916  
361.500000	0.235324  
362.000000	0.331254  
362.500000	0.449297  
363.000000	0.535815  
363.500000	0.557475  
364.000000	0.503379  
364.500000	0.398982  
365.000000	0.279671  
365.500000	0.131222  
366.000000	-0.008986 
366.500000	-0.101640 
367.000000	-0.065105 
367.500000	0.105641  
368.000000	0.240308  
368.500000	0.334477  
369.000000	0.459598  
369.500000	0.587976  
370.000000	0.632251  
370.500000	0.604373  
371.000000	0.538469  
371.500000	0.511717  
372.000000	0.563851  
372.500000	0.591294  
373.000000	0.525079  
373.500000	0.521557  
374.000000	0.670832  
374.500000	0.770799  
375.000000	0.843286  
375.500000	0.919678  
376.000000	1.042268  
376.500000	1.157255  
377.000000	1.186256  
377.500000	1.140935  
378.000000	1.068200  
378.500000	1.110230  
379.000000	1.147951  
379.500000	1.125018  
380.000000	1.102922  
380.500000	1.119251  
381.000000	1.130457  
381.500000	1.056524  
382.000000	1.009913  
382.500000	0.943008  
383.000000	0.924088  
383.500000	0.893469  
384.000000	0.787934  
384.500000	0.646981  
385.000000	0.483284  
385.500000	0.356562  
386.000000	0.178371  
386.500000	0.112130  
387.000000	0.115787  
387.500000	0.196870  
388.000000	0.343040  
388.500000	0.521043  
389.000000	0.693891  
389.500000	0.785436  
390.000000	0.804902  
390.500000	0.681321  
391.000000	0.538171  
391.500000	0.409232  
392.000000	0.312274  
392.500000	0.237900  
393.000000	0.246785  
393.500000	0.341804  
394.000000	0.423799  
394.500000	0.487012  
395.000000	0.475350  
395.500000	0.432656  
396.000000	0.381617  
396.500000	0.347088  
397.000000	0.243462  
397.500000	0.187780  
398.000000	0.208646  
398.500000	0.231851  
399.000000	0.261338  
399.500000	0.270980  
400.000000	0.246920  
400.500000	0.228826  
401.000000	0.272358  
401.500000	0.252125  
402.000000	0.237643  
402.500000	0.263565  
403.000000	0.294844  
403.500000	0.336825  
404.000000	0.404093  
404.500000	0.432703  
405.000000	0.433815  
405.500000	0.512476  
406.000000	0.581991  
406.500000	0.638405  
407.000000	0.704322  
407.500000	0.757346  
408.000000	0.794342  
408.500000	0.841513  
409.000000	0.815334  
409.500000	0.708728  
410.000000	0.612799  
410.500000	0.551402  
411.000000	0.462827  
411.500000	0.406489  
412.000000	0.381697  
412.500000	0.368977  
413.000000	0.404153  
413.500000	0.419438  
414.000000	0.418988  
414.500000	0.419984  
415.000000	0.472539  
415.500000	0.510013  
416.000000	0.567267  
416.500000	0.643280  
417.000000	0.690010  
417.500000	0.757976  
418.000000	0.784549  
418.500000	0.797805  
419.000000	0.767842  
419.500000	0.761289  
420.000000	0.744042  
420.500000	0.734433  
421.000000	0.732523  
421.500000	0.689028  
422.000000	0.672134  
422.500000	0.664836  
423.000000	0.682987  
423.500000	0.681202  
424.000000	0.697030  
424.500000	0.695372  
425.000000	0.698358  
425.500000	0.690596  
426.000000	0.628998  
426.500000	0.560070  
427.000000	0.522626  
427.500000	0.499054  
428.000000	0.487708  
428.500000	0.518012  
429.000000	0.554833  
429.500000	0.613583  
430.000000	0.671172  
430.500000	0.707805  
431.000000	0.726273  
431.500000	0.759184  
432.000000	0.766057  
432.500000	0.736146  
433.000000	0.687647  
433.500000	0.636550  
434.000000	0.605467  
434.500000	0.570629  
435.000000	0.538020  
435.500000	0.535476  
436.000000	0.580616  
436.500000	0.630640  
437.000000	0.659716  
437.500000	0.664849  
438.000000	0.673479  
438.500000	0.695746  
439.000000	0.709781  
439.500000	0.697244  
440.000000	0.685915  
440.500000	0.680525  
441.000000	0.670036  
441.500000	0.630586  
442.000000	0.570225  
442.500000	0.498152  
443.000000	0.452254  
443.500000	0.431444  
444.000000	0.423267  
444.500000	0.429506  

