PE FL                   SPECTRUM    ASCII       PEDS        1.60        
  -1
PMEF0D~1
23/10/12
12:52:08.00
23/10/12
12:52:08.00


444.500000
1









LS55
50.00
5.00
5.00
SCAN
1
20
100
500
0
500
0
2
0
1
7
ON
500 450 
1 0 0
#HDR
-1
-1
#GR
NM

0.00002384185791015625
0.0
250.000000
0.500000
390
8
44.036462
-4.999999
#DATA
250.000000	-4.999999 
250.500000	-3.058286 
251.000000	-1.499796 
251.500000	-0.216565 
252.000000	0.308604  
252.500000	0.198148  
253.000000	-0.324247 
253.500000	-0.940818 
254.000000	-1.801032 
254.500000	-2.535272 
255.000000	-3.233215 
255.500000	-3.651491 
256.000000	-3.858345 
256.500000	-3.986909 
257.000000	-4.046463 
257.500000	-3.761223 
258.000000	-3.275394 
258.500000	-2.617592 
259.000000	-1.904836 
259.500000	-1.104522 
260.000000	-0.192157 
260.500000	0.535374  
261.000000	1.190085  
261.500000	1.459558  
262.000000	1.392649  
262.500000	1.148741  
263.000000	0.863777  
263.500000	0.247235  
264.000000	-0.209989 
264.500000	-0.656761 
265.000000	-1.061887 
265.500000	-1.190032 
266.000000	-1.353073 
266.500000	-1.935073 
267.000000	-2.679277 
267.500000	-3.085316 
268.000000	-3.484662 
268.500000	-3.446353 
269.000000	-3.350149 
269.500000	-2.783334 
270.000000	-1.755479 
270.500000	-0.315117 
271.000000	0.722439  
271.500000	1.111701  
272.000000	1.331994  
272.500000	1.109952  
273.000000	0.381358  
273.500000	-0.919189 
274.000000	-2.126721 
274.500000	-3.065063 
275.000000	-3.477948 
275.500000	-3.407567 
276.000000	-3.316525 
276.500000	-2.974238 
277.000000	-2.613237 
277.500000	-2.516904 
278.000000	-2.876237 
278.500000	-3.192659 
279.000000	-3.352519 
279.500000	-3.244058 
280.000000	-2.770824 
280.500000	-2.041248 
281.000000	-1.289003 
281.500000	-0.700868 
282.000000	-0.354607 
282.500000	-0.407869 
283.000000	-0.824774 
283.500000	-1.400245 
284.000000	-1.958777 
284.500000	-2.204261 
285.000000	-2.105806 
285.500000	-1.823967 
286.000000	-1.513914 
286.500000	-0.946536 
287.000000	-0.393421 
287.500000	-0.037451 
288.000000	0.123958  
288.500000	0.029692  
289.000000	-0.268361 
289.500000	-0.806941 
290.000000	-1.423910 
290.500000	-1.816371 
291.000000	-1.964211 
291.500000	-1.591617 
292.000000	-0.769593 
292.500000	0.652607  
293.000000	2.026279  
293.500000	3.379998  
294.000000	4.226400  
294.500000	4.386555  
295.000000	4.447599  
295.500000	4.208886  
296.000000	3.638971  
296.500000	3.010314  
297.000000	2.686069  
297.500000	2.363364  
298.000000	2.357310  
298.500000	2.617362  
299.000000	2.730637  
299.500000	3.487601  
300.000000	4.628529  
300.500000	6.090164  
301.000000	7.951204  
301.500000	10.235168 
302.000000	12.370261 
302.500000	14.352447 
303.000000	16.700527 
303.500000	18.705610 
304.000000	20.579014 
304.500000	21.925430 
305.000000	23.145355 
305.500000	24.318707 
306.000000	25.243595 
306.500000	25.723851 
307.000000	25.620456 
307.500000	25.579815 
308.000000	25.951269 
308.500000	26.359881 
309.000000	26.586790 
309.500000	27.150293 
310.000000	28.444986 
310.500000	30.340881 
311.000000	32.737928 
311.500000	35.376661 
312.000000	38.053872 
312.500000	40.948796 
313.000000	42.818890 
313.500000	43.880591 
314.000000	44.036462 
314.500000	43.869358 
315.000000	43.233809 
315.500000	42.224469 
316.000000	41.475584 
316.500000	41.009177 
317.000000	41.252178 
317.500000	41.162015 
318.000000	40.957759 
318.500000	40.365674 
319.000000	39.720362 
319.500000	38.900683 
320.000000	37.725577 
320.500000	36.521731 
321.000000	35.528219 
321.500000	35.097253 
322.000000	34.915269 
322.500000	34.947528 
323.000000	34.966176 
323.500000	35.080224 
324.000000	35.300650 
324.500000	35.392087 
325.000000	35.082090 
325.500000	34.145033 
326.000000	32.940165 
326.500000	31.603102 
327.000000	30.151807 
327.500000	28.746530 
328.000000	27.581629 
328.500000	26.527320 
329.000000	25.807968 
329.500000	25.344257 
330.000000	24.881390 
330.500000	24.520272 
331.000000	24.007707 
331.500000	23.312864 
332.000000	22.586519 
332.500000	22.062408 
333.000000	21.431330 
333.500000	20.789973 
334.000000	20.048528 
334.500000	19.465079 
335.000000	19.006198 
335.500000	18.657559 
336.000000	18.253254 
336.500000	17.954252 
337.000000	17.870180 
337.500000	17.950896 
338.000000	18.120515 
338.500000	18.115538 
339.000000	18.251949 
339.500000	18.340180 
340.000000	18.467998 
340.500000	18.583221 
341.000000	18.736371 
341.500000	18.815689 
342.000000	18.855510 
342.500000	19.003073 
343.000000	18.949092 
343.500000	18.911117 
344.000000	18.636454 
344.500000	18.234419 
345.000000	17.954736 
345.500000	17.967538 
346.000000	18.067459 
346.500000	18.132611 
347.000000	18.360637 
347.500000	18.738298 
348.000000	19.365125 
348.500000	19.931434 
349.000000	20.207007 
349.500000	20.345035 
350.000000	20.579939 
350.500000	20.869248 
351.000000	20.945077 
351.500000	20.963501 
352.000000	20.971165 
352.500000	21.126412 
353.000000	21.418119 
353.500000	21.735324 
354.000000	22.145818 
354.500000	22.592351 
355.000000	23.203599 
355.500000	23.861160 
356.000000	24.466547 
356.500000	25.015017 
357.000000	25.291872 
357.500000	25.555853 
358.000000	25.734851 
358.500000	25.773413 
359.000000	25.549406 
359.500000	25.346317 
360.000000	25.230237 
360.500000	25.143232 
361.000000	25.200826 
361.500000	25.087528 
362.000000	25.117598 
362.500000	25.312160 
363.000000	25.678056 
363.500000	25.940542 
364.000000	26.197756 
364.500000	26.406710 
365.000000	26.575095 
365.500000	26.795016 
366.000000	26.767907 
366.500000	26.712057 
367.000000	26.821132 
367.500000	27.081371 
368.000000	27.371542 
368.500000	27.700530 
369.000000	28.122969 
369.500000	28.684391 
370.000000	29.218193 
370.500000	29.629792 
371.000000	29.827084 
371.500000	30.010616 
372.000000	30.298220 
372.500000	30.603170 
373.000000	30.780453 
373.500000	30.920361 
374.000000	31.067453 
374.500000	31.209131 
375.000000	31.333955 
375.500000	31.266905 
376.000000	31.193179 
376.500000	31.166960 
377.000000	31.220515 
377.500000	31.228462 
378.000000	31.200091 
378.500000	31.187032 
379.000000	31.178435 
379.500000	31.179263 
380.000000	31.248980 
380.500000	31.380098 
381.000000	31.450252 
381.500000	31.526832 
382.000000	31.736134 
382.500000	31.744551 
383.000000	31.535569 
383.500000	31.199281 
384.000000	30.857547 
384.500000	30.651610 
385.000000	30.524777 
385.500000	30.333694 
386.000000	30.183951 
386.500000	30.358446 
387.000000	30.509071 
387.500000	30.683404 
388.000000	30.778114 
388.500000	30.763715 
389.000000	30.729791 
389.500000	30.731606 
390.000000	30.562199 
390.500000	30.236490 
391.000000	29.983729 
391.500000	29.692228 
392.000000	29.397052 
392.500000	29.119427 
393.000000	28.945789 
393.500000	28.738244 
394.000000	28.664425 
394.500000	28.572153 
395.000000	28.481155 
395.500000	28.286893 
396.000000	28.036485 
396.500000	27.799410 
397.000000	27.593970 
397.500000	27.438041 
398.000000	27.186790 
398.500000	26.979716 
399.000000	26.787521 
399.500000	26.717695 
400.000000	26.559124 
400.500000	26.407181 
401.000000	26.223841 
401.500000	25.978524 
402.000000	25.731991 
402.500000	25.546248 
403.000000	25.482626 
403.500000	25.466467 
404.000000	25.562614 
404.500000	25.573518 
405.000000	25.603305 
405.500000	25.661533 
406.000000	25.623265 
406.500000	25.482530 
407.000000	25.349112 
407.500000	25.199131 
408.000000	25.038824 
408.500000	24.898453 
409.000000	24.631916 
409.500000	24.280206 
410.000000	23.961688 
410.500000	23.631698 
411.000000	23.299646 
411.500000	23.112166 
412.000000	22.958828 
412.500000	22.916037 
413.000000	23.025671 
413.500000	23.132899 
414.000000	23.110362 
414.500000	22.978396 
415.000000	22.760461 
415.500000	22.545240 
416.000000	22.394394 
416.500000	22.140389 
417.000000	21.784803 
417.500000	21.577462 
418.000000	21.440809 
418.500000	21.319204 
419.000000	21.113129 
419.500000	20.866752 
420.000000	20.644337 
420.500000	20.464269 
421.000000	20.226553 
421.500000	19.802995 
422.000000	19.386254 
422.500000	18.949138 
423.000000	18.555166 
423.500000	18.176225 
424.000000	17.800537 
424.500000	17.513538 
425.000000	17.340821 
425.500000	17.276361 
426.000000	17.178590 
426.500000	17.102991 
427.000000	16.993682 
427.500000	16.841361 
428.000000	16.665647 
428.500000	16.442187 
429.000000	16.194410 
429.500000	15.963873 
430.000000	15.819223 
430.500000	15.692737 
431.000000	15.616930 
431.500000	15.507567 
432.000000	15.398048 
432.500000	15.348786 
433.000000	15.209603 
433.500000	15.032564 
434.000000	14.803652 
434.500000	14.627951 
435.000000	14.443043 
435.500000	14.326063 
436.000000	14.180710 
436.500000	14.044766 
437.000000	14.015401 
437.500000	13.914769 
438.000000	13.835860 
438.500000	13.670656 
439.000000	13.492432 
439.500000	13.283161 
440.000000	13.124009 
440.500000	12.947284 
441.000000	12.734204 
441.500000	12.633329 
442.000000	12.509534 
442.500000	12.420593 
443.000000	12.309563 
443.500000	12.152371 
444.000000	11.954158 
444.500000	11.809509 

