PE FL                   SPECTRUM    ASCII       PEDS        1.60        
  -1
PMEF95~1
23/10/12
12:51:28.00
23/10/12
12:51:28.00


444.500000
1









LS55
45.00
5.00
5.00
SCAN
1
20
100
500
0
500
0
2
0
1
7
ON
500 450 
1 0 0
#HDR
-1
-1
#GR
NM

0.00002384185791015625
0.0
250.000000
0.500000
390
8
44.008108
-4.326666
#DATA
250.000000	4.404999  
250.500000	1.444083  
251.000000	-0.900350 
251.500000	-2.420711 
252.000000	-3.727491 
252.500000	-4.236906 
253.000000	-4.326666 
253.500000	-3.687427 
254.000000	-3.017211 
254.500000	-2.450369 
255.000000	-2.099563 
255.500000	-1.656032 
256.000000	-1.117584 
256.500000	-1.249699 
257.000000	-1.486524 
257.500000	-2.088317 
258.000000	-2.544230 
258.500000	-3.213823 
259.000000	-3.524034 
259.500000	-3.561809 
260.000000	-3.584814 
260.500000	-2.945191 
261.000000	-2.245825 
261.500000	-1.421978 
262.000000	-1.258643 
262.500000	-0.920391 
263.000000	-0.852827 
263.500000	-0.775996 
264.000000	-0.611646 
264.500000	-1.140187 
265.000000	-1.218792 
265.500000	-0.959187 
266.000000	-0.564982 
266.500000	-0.786731 
267.000000	-1.021461 
267.500000	-1.025823 
268.000000	-0.820510 
268.500000	-0.518668 
269.000000	-0.804029 
269.500000	-0.855423 
270.000000	-0.673263 
270.500000	-0.341111 
271.000000	-0.589699 
271.500000	-1.639063 
272.000000	-2.246004 
272.500000	-2.735532 
273.000000	-3.012032 
273.500000	-3.367848 
274.000000	-3.190013 
274.500000	-2.622384 
275.000000	-1.723500 
275.500000	-0.730926 
276.000000	-0.478361 
276.500000	-0.242136 
277.000000	-0.265567 
277.500000	-0.503519 
278.000000	-1.046071 
278.500000	-1.533139 
279.000000	-2.095014 
279.500000	-2.542857 
280.000000	-2.851882 
280.500000	-3.052307 
281.000000	-3.044442 
281.500000	-2.969153 
282.000000	-2.898066 
282.500000	-2.548269 
283.000000	-1.878419 
283.500000	-1.274289 
284.000000	-0.815452 
284.500000	-0.795603 
285.000000	-0.743876 
285.500000	-0.824345 
286.000000	-1.110167 
286.500000	-1.864314 
287.000000	-2.369958 
287.500000	-2.611089 
288.000000	-2.760101 
288.500000	-2.908969 
289.000000	-3.085643 
289.500000	-3.422632 
290.000000	-3.326735 
290.500000	-3.050168 
291.000000	-2.935743 
291.500000	-2.837804 
292.000000	-2.208616 
292.500000	-1.218237 
293.000000	-0.200931 
293.500000	0.853359  
294.000000	1.264133  
294.500000	1.432075  
295.000000	1.246050  
295.500000	0.776771  
296.000000	-0.421069 
296.500000	-1.506232 
297.000000	-2.071818 
297.500000	-2.434018 
298.000000	-2.214186 
298.500000	-1.763091 
299.000000	-0.999547 
299.500000	0.361007  
300.000000	2.225335  
300.500000	3.879844  
301.000000	5.597251  
301.500000	7.605561  
302.000000	9.614798  
302.500000	11.652705 
303.000000	13.786468 
303.500000	15.803886 
304.000000	17.928656 
304.500000	19.981822 
305.000000	21.477537 
305.500000	22.519990 
306.000000	23.463328 
306.500000	24.059714 
307.000000	24.800580 
307.500000	25.549005 
308.000000	26.377068 
308.500000	27.320994 
309.000000	28.680976 
309.500000	29.691933 
310.000000	30.398754 
310.500000	30.882142 
311.000000	31.373648 
311.500000	32.316542 
312.000000	33.598839 
312.500000	35.241614 
313.000000	36.953525 
313.500000	39.088136 
314.000000	41.235473 
314.500000	42.597174 
315.000000	43.449402 
315.500000	43.951359 
316.000000	44.008108 
316.500000	43.842803 
317.000000	43.601885 
317.500000	43.085567 
318.000000	42.449378 
318.500000	41.991078 
319.000000	41.131330 
319.500000	40.235651 
320.000000	39.585476 
320.500000	38.923902 
321.000000	38.376939 
321.500000	37.810215 
322.000000	37.266433 
322.500000	36.534243 
323.000000	35.953780 
323.500000	35.050789 
324.000000	34.453011 
324.500000	34.195057 
325.000000	33.981143 
325.500000	33.815915 
326.000000	33.736574 
326.500000	33.645599 
327.000000	33.405809 
327.500000	32.706104 
328.000000	31.754760 
328.500000	30.705955 
329.000000	29.724605 
329.500000	28.565240 
330.000000	27.361606 
330.500000	26.399359 
331.000000	25.652021 
331.500000	25.082961 
332.000000	24.438789 
332.500000	23.525713 
333.000000	22.362054 
333.500000	21.335172 
334.000000	20.171467 
334.500000	18.802995 
335.000000	17.441721 
335.500000	16.382892 
336.000000	15.685055 
336.500000	15.415580 
337.000000	15.380156 
337.500000	15.519007 
338.000000	15.871468 
338.500000	16.192521 
339.000000	16.299191 
339.500000	16.206101 
340.000000	15.808116 
340.500000	15.191089 
341.000000	14.632864 
341.500000	14.017180 
342.000000	13.455554 
342.500000	13.190010 
343.000000	13.210696 
343.500000	13.551428 
344.000000	14.148593 
344.500000	14.858250 
345.000000	15.579988 
345.500000	16.135888 
346.000000	16.596258 
346.500000	16.794699 
347.000000	16.756077 
347.500000	16.559411 
348.000000	16.484604 
348.500000	16.454650 
349.000000	16.465142 
349.500000	16.615047 
350.000000	16.902449 
350.500000	17.414971 
351.000000	18.082313 
351.500000	18.424573 
352.000000	18.497091 
352.500000	18.685538 
353.000000	18.572266 
353.500000	18.280106 
354.000000	17.790720 
354.500000	17.287904 
355.000000	16.915280 
355.500000	16.939585 
356.000000	17.058131 
356.500000	17.289013 
357.000000	17.988964 
357.500000	18.694055 
358.000000	19.286041 
358.500000	19.583817 
359.000000	19.790718 
359.500000	19.815322 
360.000000	19.945148 
360.500000	20.199524 
361.000000	20.506190 
361.500000	21.181470 
362.000000	21.997568 
362.500000	22.837457 
363.000000	23.479426 
363.500000	24.055990 
364.000000	24.366815 
364.500000	24.367673 
365.000000	24.164681 
365.500000	23.798769 
366.000000	23.494983 
366.500000	23.285277 
367.000000	23.163013 
367.500000	23.177655 
368.000000	23.504327 
368.500000	24.013352 
369.000000	24.615856 
369.500000	25.035292 
370.000000	25.375402 
370.500000	25.590764 
371.000000	25.701647 
371.500000	25.588636 
372.000000	25.428073 
372.500000	25.371932 
373.000000	25.421283 
373.500000	25.711146 
374.000000	25.906154 
374.500000	26.163952 
375.000000	26.379047 
375.500000	26.478890 
376.000000	26.336616 
376.500000	26.121692 
377.000000	25.906733 
377.500000	25.635783 
378.000000	25.600416 
378.500000	25.635161 
379.000000	25.759219 
379.500000	25.946334 
380.000000	26.129222 
380.500000	26.375766 
381.000000	26.701965 
381.500000	27.002134 
382.000000	27.183202 
382.500000	27.366574 
383.000000	27.506722 
383.500000	27.522539 
384.000000	27.378768 
384.500000	27.185135 
385.000000	26.851624 
385.500000	26.569433 
386.000000	26.246416 
386.500000	25.993762 
387.000000	25.826576 
387.500000	25.812180 
388.000000	25.767094 
388.500000	25.555174 
389.000000	25.336742 
389.500000	24.919611 
390.000000	24.562688 
390.500000	24.209792 
391.000000	23.959637 
391.500000	23.785052 
392.000000	23.813580 
392.500000	23.911444 
393.000000	23.943774 
393.500000	24.068975 
394.000000	24.049527 
394.500000	24.016354 
395.000000	24.020214 
395.500000	24.016986 
396.000000	24.001982 
396.500000	24.011751 
397.000000	23.931578 
397.500000	23.756153 
398.000000	23.585263 
398.500000	23.299285 
399.000000	22.980228 
399.500000	22.884962 
400.000000	22.739186 
400.500000	22.776903 
401.000000	22.889771 
401.500000	22.921083 
402.000000	22.850793 
402.500000	22.792745 
403.000000	22.703561 
403.500000	22.515952 
404.000000	22.500880 
404.500000	22.400313 
405.000000	22.465958 
405.500000	22.565405 
406.000000	22.608625 
406.500000	22.522098 
407.000000	22.316337 
407.500000	22.064301 
408.000000	21.762120 
408.500000	21.454135 
409.000000	21.041629 
409.500000	20.707219 
410.000000	20.399848 
410.500000	20.156506 
411.000000	19.965786 
411.500000	19.795920 
412.000000	19.711327 
412.500000	19.695972 
413.000000	19.635745 
413.500000	19.440231 
414.000000	19.198648 
414.500000	18.939243 
415.000000	18.618614 
415.500000	18.226305 
416.000000	17.876937 
416.500000	17.666858 
417.000000	17.515804 
417.500000	17.400903 
418.000000	17.328083 
418.500000	17.252792 
419.000000	17.217996 
419.500000	17.163488 
420.000000	17.019605 
420.500000	16.885774 
421.000000	16.845317 
421.500000	16.711899 
422.000000	16.529957 
422.500000	16.319172 
423.000000	16.119331 
423.500000	15.966640 
424.000000	15.882979 
424.500000	15.725005 
425.000000	15.550455 
425.500000	15.443553 
426.000000	15.258451 
426.500000	14.988991 
427.000000	14.720646 
427.500000	14.464443 
428.000000	14.238303 
428.500000	14.142120 
429.000000	14.065435 
429.500000	14.003779 
430.000000	14.001331 
430.500000	13.983431 
431.000000	13.933852 
431.500000	13.845923 
432.000000	13.672626 
432.500000	13.484441 
433.000000	13.365193 
433.500000	13.222093 
434.000000	13.093660 
434.500000	13.013178 
435.000000	12.933962 
435.500000	12.826332 
436.000000	12.759782 
436.500000	12.673558 
437.000000	12.551855 
437.500000	12.438940 
438.000000	12.296399 
438.500000	12.174710 
439.000000	12.073680 
439.500000	11.919593 
440.000000	11.761548 
440.500000	11.651516 
441.000000	11.562974 
441.500000	11.447614 
442.000000	11.346598 
442.500000	11.205563 
443.000000	11.123499 
443.500000	11.094114 
444.000000	11.057010 
444.500000	10.987311 

