PE FL                   SPECTRUM    ASCII       PEDS        1.60        
  -1
PMEF25~1
23/10/12
12:46:45.00
23/10/12
12:46:45.00


444.500000
1









LS55
10.00
5.00
5.00
SCAN
1
20
100
500
0
500
0
2
0
1
7
ON
500 450 
1 0 0
#HDR
-1
-1
#GR
NM

0.00002384185791015625
0.0
250.000000
0.500000
390
8
10.176636
-5.000000
#DATA
250.000000	-5.000000 
250.500000	-2.948729 
251.000000	-1.527106 
251.500000	-0.318809 
252.000000	0.434535  
252.500000	1.196987  
253.000000	1.199468  
253.500000	0.692588  
254.000000	-0.181297 
254.500000	-0.918825 
255.000000	-1.547002 
255.500000	-2.364774 
256.000000	-3.085685 
256.500000	-3.651457 
257.000000	-3.719578 
257.500000	-3.791718 
258.000000	-3.894696 
258.500000	-4.063276 
259.000000	-3.980108 
259.500000	-3.753553 
260.000000	-3.326951 
260.500000	-2.789285 
261.000000	-1.965213 
261.500000	-0.943045 
262.000000	-0.197995 
262.500000	0.588063  
263.000000	1.064552  
263.500000	1.131953  
264.000000	0.763175  
264.500000	0.349852  
265.000000	-0.194930 
265.500000	-0.582537 
266.000000	-0.800256 
266.500000	-1.286142 
267.000000	-1.577620 
267.500000	-1.828780 
268.000000	-2.212724 
268.500000	-2.708827 
269.000000	-3.191878 
269.500000	-3.807777 
270.000000	-3.935964 
270.500000	-3.657312 
271.000000	-3.335147 
271.500000	-2.928090 
272.000000	-2.755784 
272.500000	-2.531083 
273.000000	-2.209703 
273.500000	-1.828975 
274.000000	-1.816676 
274.500000	-1.603461 
275.000000	-1.239893 
275.500000	-0.808228 
276.000000	-0.463926 
276.500000	-0.862728 
277.000000	-1.425723 
277.500000	-1.907506 
278.000000	-2.315810 
278.500000	-2.997009 
279.000000	-3.498103 
279.500000	-3.744821 
280.000000	-3.843162 
280.500000	-3.720914 
281.000000	-3.785739 
281.500000	-3.798373 
282.000000	-3.687156 
282.500000	-3.509074 
283.000000	-3.246941 
283.500000	-2.803790 
284.000000	-2.211508 
284.500000	-1.608650 
285.000000	-1.069265 
285.500000	-0.637149 
286.000000	-0.387750 
286.500000	-0.311632 
287.000000	-0.343705 
287.500000	-0.429338 
288.000000	-0.648925 
288.500000	-0.861947 
289.000000	-1.126061 
289.500000	-1.435220 
290.000000	-1.795143 
290.500000	-2.156587 
291.000000	-2.618582 
291.500000	-3.112363 
292.000000	-3.599416 
292.500000	-4.164482 
293.000000	-4.566331 
293.500000	-4.852842 
294.000000	-4.733000 
294.500000	-4.026182 
295.000000	-3.046375 
295.500000	-1.992129 
296.000000	-0.826977 
296.500000	0.206537  
297.000000	0.799248  
297.500000	1.205136  
298.000000	1.282763  
298.500000	1.002658  
299.000000	0.635033  
299.500000	0.253738  
300.000000	-0.228611 
300.500000	-0.659523 
301.000000	-1.137727 
301.500000	-1.869855 
302.000000	-2.285804 
302.500000	-2.654236 
303.000000	-2.859409 
303.500000	-2.826177 
304.000000	-2.476306 
304.500000	-1.988972 
305.000000	-1.322875 
305.500000	-0.733164 
306.000000	-0.675519 
306.500000	-0.477092 
307.000000	-0.716858 
307.500000	-0.908000 
308.000000	-1.133593 
308.500000	-1.358802 
309.000000	-1.406065 
309.500000	-1.154475 
310.000000	-0.544419 
310.500000	-0.064467 
311.000000	0.963924  
311.500000	1.676973  
312.000000	2.222943  
312.500000	2.816611  
313.000000	2.966656  
313.500000	2.881883  
314.000000	2.644191  
314.500000	2.468167  
315.000000	2.249296  
315.500000	2.563068  
316.000000	3.020218  
316.500000	3.532103  
317.000000	4.474509  
317.500000	5.290249  
318.000000	6.018967  
318.500000	6.469286  
319.000000	6.688751  
319.500000	6.721530  
320.000000	6.684590  
320.500000	6.646351  
321.000000	6.497598  
321.500000	6.683506  
322.000000	6.891415  
322.500000	7.125250  
323.000000	7.449116  
323.500000	7.745384  
324.000000	8.166870  
324.500000	8.567258  
325.000000	9.006874  
325.500000	9.384308  
326.000000	9.707529  
326.500000	9.961383  
327.000000	10.081525 
327.500000	10.176098 
328.000000	10.169553 
328.500000	10.176636 
329.000000	10.113931 
329.500000	10.058892 
330.000000	10.111587 
330.500000	10.144088 
331.000000	10.108070 
331.500000	9.952414  
332.000000	9.746048  
332.500000	9.567566  
333.000000	9.441096  
333.500000	9.247311  
334.000000	9.032573  
334.500000	9.024463  
335.000000	9.167211  
335.500000	9.220699  
336.000000	9.107980  
336.500000	8.803714  
337.000000	8.399857  
337.500000	8.142499  
338.000000	7.844429  
338.500000	7.462375  
339.000000	7.097710  
339.500000	6.998193  
340.000000	6.913242  
340.500000	6.831496  
341.000000	6.660111  
341.500000	6.334156  
342.000000	6.160721  
342.500000	5.965060  
343.000000	5.752686  
343.500000	5.449625  
344.000000	5.273179  
344.500000	5.055615  
345.000000	5.022499  
345.500000	5.185187  
346.000000	5.222109  
346.500000	5.208026  
347.000000	5.212402  
347.500000	5.314888  
348.000000	5.448025  
348.500000	5.572045  
349.000000	5.550931  
349.500000	5.658994  
350.000000	5.838407  
350.500000	5.901775  
351.000000	5.749361  
351.500000	5.446803  
352.000000	5.154011  
352.500000	4.847949  
353.000000	4.542396  
353.500000	4.201955  
354.000000	4.107780  
354.500000	4.160645  
355.000000	4.254932  
355.500000	4.396771  
356.000000	4.448400  
356.500000	4.468300  
357.000000	4.372443  
357.500000	4.240413  
358.000000	4.104477  
358.500000	4.059900  
359.000000	4.016505  
359.500000	3.960021  
360.000000	4.018241  
360.500000	4.157735  
361.000000	4.396879  
361.500000	4.539856  
362.000000	4.771140  
362.500000	5.010678  
363.000000	5.146207  
363.500000	5.180986  
364.000000	5.097687  
364.500000	4.994394  
365.000000	4.990404  
365.500000	5.006406  
366.000000	4.923663  
366.500000	4.998077  
367.000000	5.101910  
367.500000	5.171882  
368.000000	5.177154  
368.500000	5.053561  
369.000000	4.790168  
369.500000	4.552472  
370.000000	4.309720  
370.500000	4.035522  
371.000000	3.905430  
371.500000	3.805934  
372.000000	3.796621  
372.500000	3.942064  
373.000000	4.105755  
373.500000	4.225332  
374.000000	4.374457  
374.500000	4.489139  
375.000000	4.607153  
375.500000	4.727051  
376.000000	4.767152  
376.500000	4.774614  
377.000000	4.811389  
377.500000	4.794900  
378.000000	4.730330  
378.500000	4.641011  
379.000000	4.512395  
379.500000	4.460251  
380.000000	4.418297  
380.500000	4.433951  
381.000000	4.475759  
381.500000	4.497180  
382.000000	4.477834  
382.500000	4.447289  
383.000000	4.430738  
383.500000	4.379375  
384.000000	4.362093  
384.500000	4.376457  
385.000000	4.440427  
385.500000	4.566155  
386.000000	4.661227  
386.500000	4.701354  
387.000000	4.700241  
387.500000	4.677560  
388.000000	4.608706  
388.500000	4.521757  
389.000000	4.452855  
389.500000	4.420504  
390.000000	4.456219  
390.500000	4.460408  
391.000000	4.452272  
391.500000	4.410288  
392.000000	4.387754  
392.500000	4.334950  
393.000000	4.235656  
393.500000	4.129470  
394.000000	4.024997  
394.500000	4.020197  
395.000000	4.035570  
395.500000	4.062019  
396.000000	4.081345  
396.500000	4.153575  
397.000000	4.194754  
397.500000	4.226174  
398.000000	4.213751  
398.500000	4.150159  
399.000000	4.136957  
399.500000	4.105708  
400.000000	4.083492  
400.500000	4.065493  
401.000000	4.119638  
401.500000	4.152382  
402.000000	4.183936  
402.500000	4.251262  
403.000000	4.292821  
403.500000	4.385032  
404.000000	4.437112  
404.500000	4.494373  
405.000000	4.556246  
405.500000	4.608254  
406.000000	4.563352  
406.500000	4.444544  
407.000000	4.330781  
407.500000	4.204804  
408.000000	4.143696  
408.500000	4.103865  
409.000000	4.138310  
409.500000	4.215018  
410.000000	4.395169  
410.500000	4.571675  
411.000000	4.724006  
411.500000	4.807353  
412.000000	4.845199  
412.500000	4.796406  
413.000000	4.741399  
413.500000	4.702754  
414.000000	4.607801  
414.500000	4.554633  
415.000000	4.496578  
415.500000	4.478062  
416.000000	4.468062  
416.500000	4.475384  
417.000000	4.406360  
417.500000	4.378296  
418.000000	4.399925  
418.500000	4.349705  
419.000000	4.321056  
419.500000	4.280164  
420.000000	4.226924  
420.500000	4.219093  
421.000000	4.244099  
421.500000	4.258457  
422.000000	4.290338  
422.500000	4.359348  
423.000000	4.407518  
423.500000	4.467316  
424.000000	4.482559  
424.500000	4.403656  
425.000000	4.323843  
425.500000	4.210313  
426.000000	4.139628  
426.500000	4.091476  
427.000000	4.075856  
427.500000	4.084360  
428.000000	4.114865  
428.500000	4.138038  
429.000000	4.137965  
429.500000	4.105473  
430.000000	4.010046  
430.500000	3.916063  
431.000000	3.817031  
431.500000	3.705034  
432.000000	3.614668  
432.500000	3.549540  
433.000000	3.512854  
433.500000	3.530333  
434.000000	3.577864  
434.500000	3.616486  
435.000000	3.680077  
435.500000	3.770140  
436.000000	3.826346  
436.500000	3.833623  
437.000000	3.789344  
437.500000	3.708316  
438.000000	3.618423  
438.500000	3.531927  
439.000000	3.436442  
439.500000	3.376112  
440.000000	3.374158  
440.500000	3.402130  
441.000000	3.438663  
441.500000	3.487917  
442.000000	3.539382  
442.500000	3.593056  
443.000000	3.617278  
443.500000	3.609408  
444.000000	3.575931  
444.500000	3.545980  

