PE FL                   SPECTRUM    ASCII       PEDS        1.60        
  -1
PMEF45~1
23/10/12
12:48:06.00
23/10/12
12:48:06.00


444.500000
1









LS55
20.00
5.00
5.00
SCAN
1
20
100
500
0
500
0
2
0
1
7
ON
500 450 
1 0 0
#HDR
-1
-1
#GR
NM

0.00002384185791015625
0.0
250.000000
0.500000
390
8
19.216938
-5.175397
#DATA
250.000000	-4.999999 
250.500000	-4.840780 
251.000000	-4.838511 
251.500000	-4.931241 
252.000000	-5.153162 
252.500000	-5.175397 
253.000000	-4.909466 
253.500000	-4.436315 
254.000000	-3.836889 
254.500000	-3.073592 
255.000000	-2.272910 
255.500000	-1.679420 
256.000000	-1.445325 
256.500000	-1.850762 
257.000000	-2.588419 
257.500000	-3.550501 
258.000000	-4.333857 
258.500000	-4.829509 
259.000000	-5.087431 
259.500000	-4.762809 
260.000000	-3.996158 
260.500000	-2.896196 
261.000000	-1.879264 
261.500000	-1.173754 
262.000000	-1.155204 
262.500000	-1.267246 
263.000000	-1.209874 
263.500000	-1.437637 
264.000000	-1.464807 
264.500000	-1.530378 
265.000000	-1.136440 
265.500000	-0.286609 
266.000000	0.703185  
266.500000	1.070013  
267.000000	1.069722  
267.500000	0.999116  
268.000000	0.491817  
268.500000	-0.183327 
269.000000	-1.379362 
269.500000	-2.145440 
270.000000	-2.404604 
270.500000	-2.144962 
271.000000	-1.865134 
271.500000	-1.533660 
272.000000	-1.247286 
272.500000	-0.943513 
273.000000	-0.765958 
273.500000	-1.274353 
274.000000	-1.814853 
274.500000	-2.578388 
275.000000	-3.084225 
275.500000	-3.461120 
276.000000	-3.550909 
276.500000	-3.815432 
277.000000	-4.029059 
277.500000	-3.869273 
278.000000	-3.665626 
278.500000	-3.244651 
279.000000	-3.015899 
279.500000	-2.910478 
280.000000	-2.824774 
280.500000	-2.314950 
281.000000	-2.014026 
281.500000	-1.976132 
282.000000	-1.931913 
282.500000	-1.730075 
283.000000	-1.186649 
283.500000	-0.657638 
284.000000	-0.427059 
284.500000	-0.373782 
285.000000	0.079268  
285.500000	0.486387  
286.000000	0.710398  
286.500000	0.419534  
287.000000	0.003391  
287.500000	-0.335194 
288.000000	-0.470434 
288.500000	-0.829994 
289.000000	-1.348233 
289.500000	-1.765359 
290.000000	-2.004141 
290.500000	-1.750129 
291.000000	-1.844138 
291.500000	-1.930628 
292.000000	-1.941981 
292.500000	-1.851404 
293.000000	-1.828608 
293.500000	-1.862131 
294.000000	-2.044024 
294.500000	-1.966243 
295.000000	-1.652932 
295.500000	-1.585748 
296.000000	-1.524536 
296.500000	-1.313993 
297.000000	-1.027896 
297.500000	-0.478109 
298.000000	0.063168  
298.500000	0.173262  
299.000000	0.364509  
299.500000	0.576996  
300.000000	0.278610  
300.500000	-0.185192 
301.000000	-0.397595 
301.500000	-0.544475 
302.000000	-0.161104 
302.500000	0.405414  
303.000000	0.842454  
303.500000	1.449469  
304.000000	2.203049  
304.500000	2.681922  
305.000000	2.571144  
305.500000	2.353458  
306.000000	1.948363  
306.500000	1.820503  
307.000000	2.070920  
307.500000	2.437367  
308.000000	2.867267  
308.500000	3.632933  
309.000000	4.837392  
309.500000	5.765858  
310.000000	6.318054  
310.500000	6.625548  
311.000000	6.953503  
311.500000	7.411087  
312.000000	7.753297  
312.500000	7.883386  
313.000000	7.921294  
313.500000	8.603361  
314.000000	9.481012  
314.500000	10.296021 
315.000000	11.082589 
315.500000	11.938157 
316.000000	13.022837 
316.500000	13.805932 
317.000000	14.220213 
317.500000	14.345700 
318.000000	14.337247 
318.500000	14.357462 
319.000000	14.281706 
319.500000	14.288599 
320.000000	14.478111 
320.500000	15.122901 
321.000000	15.728473 
321.500000	16.452175 
322.000000	17.208592 
322.500000	17.805019 
323.000000	18.296199 
323.500000	18.571492 
324.000000	18.816038 
324.500000	18.938125 
325.000000	18.992783 
325.500000	18.730760 
326.000000	18.636483 
326.500000	18.552465 
327.000000	18.482170 
327.500000	18.469064 
328.000000	18.548092 
328.500000	18.741356 
329.000000	19.084398 
329.500000	19.216938 
330.000000	18.988895 
330.500000	18.768517 
331.000000	18.354832 
331.500000	17.826347 
332.000000	17.138688 
332.500000	16.439066 
333.000000	15.740791 
333.500000	15.257966 
334.000000	14.746028 
334.500000	14.081210 
335.000000	13.530512 
335.500000	13.018843 
336.000000	12.640435 
336.500000	12.279307 
337.000000	12.041171 
337.500000	11.857889 
338.000000	11.783349 
338.500000	11.685423 
339.000000	11.387717 
339.500000	11.040746 
340.000000	10.674234 
340.500000	10.265848 
341.000000	9.889371  
341.500000	9.569835  
342.000000	9.356243  
342.500000	9.127464  
343.000000	8.982914  
343.500000	8.765351  
344.000000	8.581393  
344.500000	8.449365  
345.000000	8.226787  
345.500000	7.951799  
346.000000	7.720017  
346.500000	7.637611  
347.000000	7.626566  
347.500000	7.674774  
348.000000	7.748739  
348.500000	7.879475  
349.000000	8.158611  
349.500000	8.274616  
350.000000	8.166107  
350.500000	7.918577  
351.000000	7.622322  
351.500000	7.190995  
352.000000	6.746305  
352.500000	6.305320  
353.000000	5.978629  
353.500000	5.967087  
354.000000	6.171166  
354.500000	6.434762  
355.000000	6.742237  
355.500000	7.117156  
356.000000	7.341167  
356.500000	7.419482  
357.000000	7.405805  
357.500000	7.301109  
358.000000	7.135293  
358.500000	6.958468  
359.000000	6.782256  
359.500000	6.593804  
360.000000	6.528971  
360.500000	6.413323  
361.000000	6.250016  
361.500000	6.202931  
362.000000	6.229624  
362.500000	6.304987  
363.000000	6.432573  
363.500000	6.631074  
364.000000	6.819809  
364.500000	7.087541  
365.000000	7.308547  
365.500000	7.373232  
366.000000	7.373066  
366.500000	7.253745  
367.000000	7.082562  
367.500000	6.852815  
368.000000	6.599613  
368.500000	6.358171  
369.000000	6.194543  
369.500000	6.052833  
370.000000	6.047735  
370.500000	6.119786  
371.000000	6.192508  
371.500000	6.278981  
372.000000	6.438604  
372.500000	6.580800  
373.000000	6.684495  
373.500000	6.788801  
374.000000	6.833328  
374.500000	6.987687  
375.000000	7.042053  
375.500000	7.062287  
376.000000	6.952201  
376.500000	6.845047  
377.000000	6.732963  
377.500000	6.628109  
378.000000	6.519117  
378.500000	6.358956  
379.000000	6.316329  
379.500000	6.240876  
380.000000	6.208484  
380.500000	6.113867  
381.000000	6.052135  
381.500000	6.029366  
382.000000	6.117812  
382.500000	6.210258  
383.000000	6.274406  
383.500000	6.359906  
384.000000	6.452588  
384.500000	6.566702  
385.000000	6.620490  
385.500000	6.644192  
386.000000	6.566407  
386.500000	6.558816  
387.000000	6.617761  
387.500000	6.685285  
388.000000	6.705043  
388.500000	6.775448  
389.000000	6.867171  
389.500000	6.973794  
390.000000	7.127567  
390.500000	7.220985  
391.000000	7.301272  
391.500000	7.423057  
392.000000	7.472200  
392.500000	7.488934  
393.000000	7.462291  
393.500000	7.432272  
394.000000	7.399450  
394.500000	7.460070  
395.000000	7.514933  
395.500000	7.564105  
396.000000	7.739257  
396.500000	7.886985  
397.000000	8.052287  
397.500000	8.168158  
398.000000	8.292082  
398.500000	8.364408  
399.000000	8.439043  
399.500000	8.449531  
400.000000	8.430921  
400.500000	8.480676  
401.000000	8.490602  
401.500000	8.446381  
402.000000	8.278490  
402.500000	8.161632  
403.000000	8.061118  
403.500000	8.001808  
404.000000	7.851356  
404.500000	7.713245  
405.000000	7.616692  
405.500000	7.574672  
406.000000	7.543857  
406.500000	7.490799  
407.000000	7.554403  
407.500000	7.803405  
408.000000	8.161961  
408.500000	8.475043  
409.000000	8.822027  
409.500000	9.141624  
410.000000	9.312700  
410.500000	9.326798  
411.000000	9.089579  
411.500000	8.714934  
412.000000	8.414058  
412.500000	8.150784  
413.000000	7.862032  
413.500000	7.753861  
414.000000	7.812162  
414.500000	7.885450  
415.000000	7.991906  
415.500000	8.061707  
416.000000	8.036486  
416.500000	8.066373  
417.000000	8.023049  
417.500000	7.868815  
418.000000	7.708366  
418.500000	7.587823  
419.000000	7.436708  
419.500000	7.286512  
420.000000	7.116622  
420.500000	6.931655  
421.000000	6.829901  
421.500000	6.731649  
422.000000	6.638040  
422.500000	6.546179  
423.000000	6.482066  
423.500000	6.406461  
424.000000	6.324697  
424.500000	6.221397  
425.000000	6.153031  
425.500000	6.107049  
426.000000	6.021677  
426.500000	5.967715  
427.000000	5.834435  
427.500000	5.666641  
428.000000	5.512851  
428.500000	5.391953  
429.000000	5.263340  
429.500000	5.214026  
430.000000	5.208721  
430.500000	5.253659  
431.000000	5.390284  
431.500000	5.481373  
432.000000	5.546302  
432.500000	5.582069  
433.000000	5.627275  
433.500000	5.632061  
434.000000	5.626785  
434.500000	5.544058  
435.000000	5.414439  
435.500000	5.283706  
436.000000	5.111554  
436.500000	4.933462  
437.000000	4.766728  
437.500000	4.645499  
438.000000	4.599374  
438.500000	4.661837  
439.000000	4.725040  
439.500000	4.796789  
440.000000	4.860955  
440.500000	4.882502  
441.000000	4.884478  
441.500000	4.849529  
442.000000	4.790115  
442.500000	4.730037  
443.000000	4.731777  
443.500000	4.762477  
444.000000	4.816824  
444.500000	4.898119  

