PE FL                   SPECTRUM    ASCII       PEDS        1.60        
  -1
QUENCH~3
23/10/11
13:51:16.00
23/10/11
13:51:16.00


424.500000
1









LS55
316.00
5.00
5.00
SCAN
1
16
100
100
0
100
0
1
0
1
7
ON
430 316 
1 0 0
#HDR
-1
-1
#GR
NM

0.00002384185791015625
0.0
330.000000
0.500000
190
8
102.920257
1.450000
#DATA
330.000000	1.450000   
330.500000	5.295108   
331.000000	8.582299   
331.500000	11.286209  
332.000000	13.306293  
332.500000	14.734565  
333.000000	15.640247  
333.500000	16.351613  
334.000000	16.874007  
334.500000	17.622710  
335.000000	18.630536  
335.500000	19.728021  
336.000000	20.903405  
336.500000	22.134586  
337.000000	23.508945  
337.500000	24.908694  
338.000000	26.746134  
338.500000	28.848423  
339.000000	31.322446  
339.500000	34.171191  
340.000000	37.174190  
340.500000	40.218744  
341.000000	43.170708  
341.500000	46.134149  
342.000000	48.843835  
342.500000	51.410455  
343.000000	53.843711  
343.500000	56.307366  
344.000000	58.856947  
344.500000	61.349699  
345.000000	63.713720  
345.500000	66.004812  
346.000000	68.200631  
346.500000	70.382679  
347.000000	72.513204  
347.500000	74.651191  
348.000000	76.989569  
348.500000	79.636984  
349.000000	82.289041  
349.500000	84.791885  
350.000000	87.258818  
350.500000	89.305037  
351.000000	91.097374  
351.500000	92.627806  
352.000000	93.987097  
352.500000	95.266076  
353.000000	96.435530  
353.500000	97.507771  
354.000000	98.548158  
354.500000	99.765161  
355.000000	100.919031 
355.500000	101.797634 
356.000000	102.389729 
356.500000	102.736547 
357.000000	102.920257 
357.500000	102.775334 
358.000000	102.500209 
358.500000	102.067336 
359.000000	101.572775 
359.500000	101.341258 
360.000000	101.089923 
360.500000	100.957729 
361.000000	100.925877 
361.500000	101.075395 
362.000000	101.006219 
362.500000	100.938821 
363.000000	100.722775 
363.500000	100.223338 
364.000000	99.748458  
364.500000	99.197168  
365.000000	98.788521  
365.500000	98.249052  
366.000000	97.817013  
366.500000	97.366048  
367.000000	97.033110  
367.500000	96.549307  
368.000000	95.893538  
368.500000	94.924806  
369.000000	93.921487  
369.500000	93.000067  
370.000000	91.897882  
370.500000	90.797400  
371.000000	89.772609  
371.500000	88.862615  
372.000000	87.875447  
372.500000	86.741365  
373.000000	85.238833  
373.500000	83.766927  
374.000000	82.312101  
374.500000	80.752609  
375.000000	79.096293  
375.500000	77.355079  
376.000000	75.962666  
376.500000	74.900744  
377.000000	74.086020  
377.500000	73.423551  
378.000000	73.081665  
378.500000	72.776260  
379.000000	72.498588  
379.500000	72.199117  
380.000000	71.473938  
380.500000	70.544193  
381.000000	69.562616  
381.500000	68.389780  
382.000000	67.313049  
382.500000	66.453275  
383.000000	65.540899  
383.500000	64.693624  
384.000000	64.024715  
384.500000	63.200970  
385.000000	62.252897  
385.500000	61.323740  
386.000000	60.264313  
386.500000	59.209310  
387.000000	58.199511  
387.500000	57.008756  
388.000000	55.688139  
388.500000	54.364516  
389.000000	52.937206  
389.500000	51.471986  
390.000000	50.207325  
390.500000	49.064908  
391.000000	48.116745  
391.500000	47.213826  
392.000000	46.319927  
392.500000	45.511383  
393.000000	44.852265  
393.500000	44.026573  
394.000000	43.096681  
394.500000	42.245668  
395.000000	41.564293  
395.500000	41.085647  
396.000000	40.563956  
396.500000	39.999647  
397.000000	39.316403  
397.500000	38.728237  
398.000000	37.996893  
398.500000	37.048016  
399.000000	36.043194  
399.500000	35.125830  
400.000000	34.363277  
400.500000	33.645597  
401.000000	32.946265  
401.500000	32.162497  
402.000000	31.321867  
402.500000	30.447356  
403.000000	29.322962  
403.500000	28.073739  
404.000000	26.818893  
404.500000	25.665146  
405.000000	24.731505  
405.500000	24.078235  
406.000000	23.713984  
406.500000	23.540071  
407.000000	23.638687  
407.500000	23.778072  
408.000000	23.905648  
408.500000	23.936857  
409.000000	23.838852  
409.500000	23.608503  
410.000000	23.205354  
410.500000	22.692266  
411.000000	22.044933  
411.500000	21.403509  
412.000000	20.797126  
412.500000	20.308629  
413.000000	20.000039  
413.500000	19.813667  
414.000000	19.781315  
414.500000	19.849985  
415.000000	19.924210  
415.500000	19.922490  
416.000000	19.834675  
416.500000	19.596921  
417.000000	19.207680  
417.500000	18.771270  
418.000000	18.251750  
418.500000	17.748305  
419.000000	17.255436  
419.500000	16.903565  
420.000000	16.617742  
420.500000	16.482829  
421.000000	16.409233  
421.500000	16.314200  
422.000000	16.227478  
422.500000	16.143456  
423.000000	16.044989  
423.500000	15.849250  
424.000000	15.693076  
424.500000	15.391300  

