PE FL                   SPECTRUM    ASCII       PEDS        1.60        
  -1
PM7565~1
23/10/10
11:25:44.00
23/10/10
11:25:44.00


444.500000
1









LS55
45.00
5.00
5.00
SCAN
1
20
100
100
0
500
0
2
0
1
7
ON
500 450 
1 0 0
#HDR
-1
-1
#GR
NM

0.00002384185791015625
0.0
300.000000
0.500000
290
8
80.045789
0.049096
#DATA
300.000000	19.686000 
300.500000	20.323271 
301.000000	21.271007 
301.500000	22.328708 
302.000000	23.581307 
302.500000	24.857281 
303.000000	26.056323 
303.500000	26.741920 
304.000000	27.280957 
304.500000	26.909017 
305.000000	26.516964 
305.500000	25.944686 
306.000000	25.581938 
306.500000	25.230921 
307.000000	24.994597 
307.500000	25.216382 
308.000000	25.374878 
308.500000	25.817750 
309.000000	25.503144 
309.500000	25.197510 
310.000000	24.916540 
310.500000	25.209416 
311.000000	25.643856 
311.500000	26.036428 
312.000000	26.969756 
312.500000	27.735807 
313.000000	28.593361 
313.500000	29.150965 
314.000000	29.738469 
314.500000	30.341306 
315.000000	31.358984 
315.500000	32.406338 
316.000000	32.941430 
316.500000	33.632480 
317.000000	33.865823 
317.500000	33.608201 
318.000000	32.858316 
318.500000	31.944191 
319.000000	31.161357 
319.500000	30.672693 
320.000000	30.860483 
320.500000	31.359871 
321.000000	32.739137 
321.500000	34.883533 
322.000000	37.157792 
322.500000	39.500484 
323.000000	42.064087 
323.500000	45.000195 
324.000000	47.655310 
324.500000	49.882974 
325.000000	51.695054 
325.500000	53.316503 
326.000000	55.177347 
326.500000	57.022667 
327.000000	58.762297 
327.500000	60.764054 
328.000000	63.724692 
328.500000	67.176777 
329.000000	70.552588 
329.500000	73.669851 
330.000000	76.075280 
330.500000	78.080223 
331.000000	79.565331 
331.500000	80.045789 
332.000000	79.829076 
332.500000	79.194586 
333.000000	78.650945 
333.500000	78.043975 
334.000000	77.355798 
334.500000	75.998039 
335.000000	74.079718 
335.500000	71.709898 
336.000000	68.516430 
336.500000	64.915234 
337.000000	60.648436 
337.500000	56.397494 
338.000000	52.526966 
338.500000	49.226988 
339.000000	46.249304 
339.500000	43.728873 
340.000000	41.334140 
340.500000	38.644688 
341.000000	36.140049 
341.500000	33.189233 
342.000000	30.045800 
342.500000	26.699062 
343.000000	23.330111 
343.500000	20.247454 
344.000000	17.769880 
344.500000	15.610513 
345.000000	13.638843 
345.500000	12.270433 
346.000000	11.204424 
346.500000	10.443518 
347.000000	9.739534  
347.500000	8.957215  
348.000000	8.280287  
348.500000	7.884570  
349.000000	7.526995  
349.500000	7.050161  
350.000000	6.579554  
350.500000	6.155728  
351.000000	5.789799  
351.500000	5.295688  
352.000000	4.662546  
352.500000	3.953600  
353.000000	3.255590  
353.500000	2.541171  
354.000000	1.859005  
354.500000	1.280032  
355.000000	0.891800  
355.500000	0.809727  
356.000000	0.825674  
356.500000	0.961616  
357.000000	1.160253  
357.500000	1.362102  
358.000000	1.491388  
358.500000	1.616119  
359.000000	1.777589  
359.500000	1.895695  
360.000000	2.074907  
360.500000	2.257068  
361.000000	2.327291  
361.500000	2.292162  
362.000000	2.169278  
362.500000	1.898563  
363.000000	1.650517  
363.500000	1.509678  
364.000000	1.505168  
364.500000	1.601032  
365.000000	1.954993  
365.500000	2.341069  
366.000000	2.715852  
366.500000	2.985753  
367.000000	3.069646  
367.500000	3.042098  
368.000000	2.890569  
368.500000	2.772378  
369.000000	2.557134  
369.500000	2.378209  
370.000000	2.240880  
370.500000	2.190982  
371.000000	2.199766  
371.500000	2.260881  
372.000000	2.353029  
372.500000	2.359232  
373.000000	2.415072  
373.500000	2.399106  
374.000000	2.249625  
374.500000	2.048838  
375.000000	1.813050  
375.500000	1.593015  
376.000000	1.442434  
376.500000	1.378664  
377.000000	1.320011  
377.500000	1.366222  
378.000000	1.466706  
378.500000	1.451560  
379.000000	1.438146  
379.500000	1.344435  
380.000000	1.212230  
380.500000	1.092648  
381.000000	1.006550  
381.500000	0.950918  
382.000000	1.017457  
382.500000	1.146733  
383.000000	1.203880  
383.500000	1.274555  
384.000000	1.316178  
384.500000	1.289660  
385.000000	1.216919  
385.500000	1.130840  
386.000000	1.053237  
386.500000	1.038027  
387.000000	1.118888  
387.500000	1.147069  
388.000000	1.114490  
388.500000	1.050147  
389.000000	0.945059  
389.500000	0.845322  
390.000000	0.730603  
390.500000	0.656938  
391.000000	0.587692  
391.500000	0.593617  
392.000000	0.647570  
392.500000	0.695768  
393.000000	0.699034  
393.500000	0.699029  
394.000000	0.706319  
394.500000	0.743621  
395.000000	0.808543  
395.500000	0.833114  
396.000000	0.864192  
396.500000	0.917275  
397.000000	0.990175  
397.500000	0.990675  
398.000000	0.963542  
398.500000	0.898131  
399.000000	0.823262  
399.500000	0.750000  
400.000000	0.667860  
400.500000	0.574067  
401.000000	0.476828  
401.500000	0.430281  
402.000000	0.384841  
402.500000	0.363954  
403.000000	0.352430  
403.500000	0.369513  
404.000000	0.383273  
404.500000	0.430057  
405.000000	0.479825  
405.500000	0.509132  
406.000000	0.522107  
406.500000	0.524444  
407.000000	0.511871  
407.500000	0.458019  
408.000000	0.386183  
408.500000	0.315921  
409.000000	0.275381  
409.500000	0.277834  
410.000000	0.301290  
410.500000	0.325091  
411.000000	0.375205  
411.500000	0.431441  
412.000000	0.430493  
412.500000	0.416828  
413.000000	0.373726  
413.500000	0.306396  
414.000000	0.247363  
414.500000	0.210990  
415.000000	0.186835  
415.500000	0.198235  
416.000000	0.229307  
416.500000	0.245024  
417.000000	0.273646  
417.500000	0.303276  
418.000000	0.292126  
418.500000	0.272284  
419.000000	0.242903  
419.500000	0.235213  
420.000000	0.248751  
420.500000	0.257712  
421.000000	0.270462  
421.500000	0.316308  
422.000000	0.377703  
422.500000	0.411396  
423.000000	0.447946  
423.500000	0.468361  
424.000000	0.483992  
424.500000	0.495177  
425.000000	0.448690  
425.500000	0.376279  
426.000000	0.288663  
426.500000	0.219615  
427.000000	0.143177  
427.500000	0.081567  
428.000000	0.049096  
428.500000	0.066186  
429.000000	0.127034  
429.500000	0.192527  
430.000000	0.253687  
430.500000	0.309726  
431.000000	0.374725  
431.500000	0.434399  
432.000000	0.458351  
432.500000	0.461470  
433.000000	0.452862  
433.500000	0.431382  
434.000000	0.392711  
434.500000	0.325658  
435.000000	0.257968  
435.500000	0.208780  
436.000000	0.198226  
436.500000	0.200726  
437.000000	0.204800  
437.500000	0.238545  
438.000000	0.285471  
438.500000	0.330157  
439.000000	0.358138  
439.500000	0.358859  
440.000000	0.353689  
440.500000	0.351845  
441.000000	0.347544  
441.500000	0.328290  
442.000000	0.303759  
442.500000	0.311633  
443.000000	0.318731  
443.500000	0.336054  
444.000000	0.325126  
444.500000	0.303596  

