PE FL                   SPECTRUM    ASCII       PEDS        1.60        
  -1
PMF465~1
23/10/10
11:21:10.00
23/10/10
11:21:10.00


444.500000
1









LS55
5.00
5.00
5.00
SCAN
1
20
100
100
0
500
0
2
0
1
7
ON
500 450 
1 0 0
#HDR
-1
-1
#GR
NM

0.00002384185791015625
0.0
300.000000
0.500000
290
8
48.223469
-2.327778
#DATA
300.000000	0.000000  
300.500000	-0.756052 
301.000000	-1.425668 
301.500000	-1.950593 
302.000000	-2.242171 
302.500000	-2.327778 
303.000000	-2.258045 
303.500000	-2.175092 
304.000000	-2.159069 
304.500000	-1.954321 
305.000000	-1.877452 
305.500000	-1.879439 
306.000000	-2.046151 
306.500000	-2.092474 
307.000000	-2.038840 
307.500000	-1.829023 
308.000000	-1.481698 
308.500000	-1.079084 
309.000000	-0.342998 
309.500000	0.225199  
310.000000	0.738090  
310.500000	0.831655  
311.000000	0.683521  
311.500000	0.201793  
312.000000	-0.446361 
312.500000	-1.125716 
313.000000	-1.747734 
313.500000	-2.002384 
314.000000	-2.245563 
314.500000	-2.244838 
315.000000	-2.157103 
315.500000	-1.800413 
316.000000	-1.389454 
316.500000	-1.096896 
317.000000	-0.810020 
317.500000	-0.462818 
318.000000	0.010017  
318.500000	0.200469  
319.000000	0.302578  
319.500000	0.198624  
320.000000	0.134533  
320.500000	-0.003495 
321.000000	-0.227372 
321.500000	-0.556875 
322.000000	-0.898593 
322.500000	-1.134417 
323.000000	-1.242418 
323.500000	-1.116598 
324.000000	-0.738548 
324.500000	-0.045497 
325.000000	0.963488  
325.500000	2.142646  
326.000000	3.500672  
326.500000	4.959714  
327.000000	6.415483  
327.500000	7.648269  
328.000000	8.735720  
328.500000	9.777253  
329.000000	10.733018 
329.500000	11.664882 
330.000000	12.707553 
330.500000	13.959327 
331.000000	15.702128 
331.500000	17.828313 
332.000000	20.010781 
332.500000	22.461444 
333.000000	25.137478 
333.500000	27.825399 
334.000000	30.269199 
334.500000	32.532577 
335.000000	34.427799 
335.500000	36.195373 
336.000000	37.647136 
336.500000	38.589970 
337.000000	39.209278 
337.500000	39.676002 
338.000000	39.957832 
338.500000	40.074446 
339.000000	40.222744 
339.500000	40.530235 
340.000000	41.062196 
340.500000	41.444796 
341.000000	41.599650 
341.500000	41.499544 
342.000000	41.209287 
342.500000	40.624097 
343.000000	39.706966 
343.500000	38.306026 
344.000000	36.915468 
344.500000	35.511707 
345.000000	34.068907 
345.500000	32.710351 
346.000000	31.455409 
346.500000	30.368635 
347.000000	29.538792 
347.500000	29.028304 
348.000000	28.586344 
348.500000	28.183568 
349.000000	27.706432 
349.500000	27.244759 
350.000000	26.622828 
350.500000	25.999384 
351.000000	25.437903 
351.500000	25.041889 
352.000000	24.986057 
352.500000	25.396012 
353.000000	26.082198 
353.500000	26.747604 
354.000000	27.570518 
354.500000	28.527784 
355.000000	29.718615 
355.500000	31.339539 
356.000000	33.054492 
356.500000	34.989542 
357.000000	36.877886 
357.500000	38.873253 
358.000000	40.729178 
358.500000	42.244208 
359.000000	43.383845 
359.500000	43.991313 
360.000000	44.662571 
360.500000	45.342392 
361.000000	46.188310 
361.500000	46.640035 
362.000000	47.102459 
362.500000	47.512874 
363.000000	47.688897 
363.500000	47.816572 
364.000000	47.561614 
364.500000	47.039815 
365.000000	46.603165 
365.500000	46.246219 
366.000000	45.756020 
366.500000	45.141250 
367.000000	44.539026 
367.500000	43.808076 
368.000000	43.406668 
368.500000	43.118594 
369.000000	42.666227 
369.500000	42.380644 
370.000000	42.157863 
370.500000	42.250353 
371.000000	42.338239 
371.500000	42.539639 
372.000000	42.577082 
372.500000	42.671584 
373.000000	43.016078 
373.500000	43.104417 
374.000000	43.198564 
374.500000	43.303473 
375.000000	43.573409 
375.500000	43.800775 
376.000000	44.339968 
376.500000	44.950127 
377.000000	45.739654 
377.500000	46.801168 
378.000000	47.592029 
378.500000	48.087708 
379.000000	48.223469 
379.500000	47.777443 
380.000000	46.871776 
380.500000	45.896248 
381.000000	44.780825 
381.500000	43.727800 
382.000000	43.026127 
382.500000	42.530987 
383.000000	42.414972 
383.500000	42.445048 
384.000000	42.203577 
384.500000	41.669297 
385.000000	41.074623 
385.500000	40.304910 
386.000000	39.454337 
386.500000	38.393373 
387.000000	37.306410 
387.500000	36.347962 
388.000000	35.403531 
388.500000	34.287020 
389.000000	33.016077 
389.500000	31.491470 
390.000000	30.072928 
390.500000	28.784340 
391.000000	27.259491 
391.500000	25.624132 
392.000000	23.999048 
392.500000	22.487632 
393.000000	21.129122 
393.500000	20.107609 
394.000000	19.173133 
394.500000	18.635911 
395.000000	18.585507 
395.500000	18.681904 
396.000000	18.833813 
396.500000	18.933198 
397.000000	19.012129 
397.500000	18.791707 
398.000000	18.411473 
398.500000	17.691309 
399.000000	16.790720 
399.500000	15.903945 
400.000000	15.032168 
400.500000	14.251156 
401.000000	13.579210 
401.500000	13.151887 
402.000000	12.932170 
402.500000	12.856750 
403.000000	12.878697 
403.500000	12.899222 
404.000000	12.875239 
404.500000	12.760582 
405.000000	12.516671 
405.500000	12.125633 
406.000000	11.664612 
406.500000	11.203740 
407.000000	10.734992 
407.500000	10.270382 
408.000000	9.845148  
408.500000	9.502781  
409.000000	9.309397  
409.500000	9.220029  
410.000000	9.250070  
410.500000	9.344232  
411.000000	9.499574  
411.500000	9.601961  
412.000000	9.600190  
412.500000	9.510145  
413.000000	9.348579  
413.500000	9.202873  
414.000000	9.066551  
414.500000	9.048833  
415.000000	9.106430  
415.500000	9.285419  
416.000000	9.527333  
416.500000	9.805690  
417.000000	10.067231 
417.500000	10.370863 
418.000000	10.688917 
418.500000	10.965173 
419.000000	11.263496 
419.500000	11.506869 
420.000000	11.770941 
420.500000	12.033106 
421.000000	12.265253 
421.500000	12.447651 
422.000000	12.699651 
422.500000	12.969998 
423.000000	13.244593 
423.500000	13.572635 
424.000000	13.880736 
424.500000	14.215230 
425.000000	14.753076 
425.500000	15.359651 
426.000000	15.985812 
426.500000	16.621059 
427.000000	17.184204 
427.500000	17.628272 
428.000000	17.975227 
428.500000	18.183747 
429.000000	18.222608 
429.500000	18.409859 
430.000000	18.654286 
430.500000	19.157655 
431.000000	20.040586 
431.500000	21.203586 
432.000000	22.575712 
432.500000	24.369841 
433.000000	26.424457 
433.500000	28.494826 
434.000000	30.630527 
434.500000	32.577046 
435.000000	34.227396 
435.500000	35.698384 
436.000000	36.794671 
436.500000	37.357819 
437.000000	37.696300 
437.500000	37.781491 
438.000000	37.821495 
438.500000	37.854293 
439.000000	37.957539 
439.500000	38.093762 
440.000000	38.674914 
440.500000	39.519267 
441.000000	40.475378 
441.500000	41.657029 
442.000000	42.750088 
442.500000	44.029227 
443.000000	45.305272 
443.500000	46.423052 
444.000000	47.210067 
444.500000	47.989662 

