PE FL                   SPECTRUM    ASCII       PEDS        1.60        
  -1
PM4565~1
23/10/10
11:24:02.00
23/10/10
11:24:02.00


444.500000
1









LS55
30.00
5.00
5.00
SCAN
1
20
100
100
0
500
0
2
0
1
7
ON
500 450 
1 0 0
#HDR
-1
-1
#GR
NM

0.00002384185791015625
0.0
300.000000
0.500000
290
8
105.620053
-0.575173
#DATA
300.000000	0.000000   
300.500000	0.073229   
301.000000	0.000681   
301.500000	0.313892   
302.000000	0.809940   
302.500000	1.324051   
303.000000	2.141110   
303.500000	2.963284   
304.000000	3.729998   
304.500000	4.238596   
305.000000	4.856711   
305.500000	5.395917   
306.000000	6.232059   
306.500000	7.171811   
307.000000	8.182551   
307.500000	9.467115   
308.000000	10.608934  
308.500000	11.788580  
309.000000	12.329595  
309.500000	12.595857  
310.000000	12.593872  
310.500000	12.492007  
311.000000	12.538796  
311.500000	12.864661  
312.000000	13.872546  
312.500000	15.105801  
313.000000	16.597148  
313.500000	17.951392  
314.000000	18.909310  
314.500000	19.593179  
315.000000	19.716455  
315.500000	19.670427  
316.000000	19.646216  
316.500000	20.331826  
317.000000	21.549000  
317.500000	22.791669  
318.000000	24.530825  
318.500000	26.143784  
319.000000	27.786210  
319.500000	28.984844  
320.000000	30.112287  
320.500000	31.034095  
321.000000	32.271337  
321.500000	34.022626  
322.000000	35.991807  
322.500000	38.513336  
323.000000	41.089789  
323.500000	44.020553  
324.000000	46.919337  
324.500000	49.845494  
325.000000	52.604807  
325.500000	55.455549  
326.000000	58.412375  
326.500000	61.754711  
327.000000	65.610357  
327.500000	69.900686  
328.000000	74.775172  
328.500000	79.981175  
329.000000	85.131261  
329.500000	89.631771  
330.000000	93.699162  
330.500000	96.868254  
331.000000	99.444014  
331.500000	101.308610 
332.000000	102.723203 
332.500000	103.903332 
333.000000	104.938012 
333.500000	105.620053 
334.000000	105.486712 
334.500000	104.913867 
335.000000	104.043512 
335.500000	102.672097 
336.000000	100.370407 
336.500000	97.666923  
337.000000	94.532290  
337.500000	90.801500  
338.000000	86.547249  
338.500000	81.430645  
339.000000	75.419404  
339.500000	69.318577  
340.000000	63.480913  
340.500000	57.636488  
341.000000	52.275759  
341.500000	47.405457  
342.000000	42.973549  
342.500000	38.998771  
343.000000	35.293679  
343.500000	31.384840  
344.000000	27.625863  
344.500000	24.245301  
345.000000	21.194326  
345.500000	18.641600  
346.000000	16.439637  
346.500000	14.524979  
347.000000	12.963939  
347.500000	11.680559  
348.000000	10.592944  
348.500000	9.491990   
349.000000	8.371454   
349.500000	7.415442   
350.000000	6.779066   
350.500000	6.256950   
351.000000	5.732184   
351.500000	5.230043   
352.000000	4.642219   
352.500000	4.027266   
353.000000	3.388396   
353.500000	2.674477   
354.000000	2.010572   
354.500000	1.559557   
355.000000	1.346392   
355.500000	1.287234   
356.000000	1.321166   
356.500000	1.339338   
357.000000	1.312809   
357.500000	1.189995   
358.000000	0.974011   
358.500000	0.743834   
359.000000	0.543112   
359.500000	0.435170   
360.000000	0.371451   
360.500000	0.301216   
361.000000	0.258316   
361.500000	0.183831   
362.000000	0.116868   
362.500000	0.055199   
363.000000	-0.014246  
363.500000	-0.130505  
364.000000	-0.147713  
364.500000	-0.208993  
365.000000	-0.255911  
365.500000	-0.270427  
366.000000	-0.290524  
366.500000	-0.214529  
367.000000	-0.032641  
367.500000	0.062163   
368.000000	0.092425   
368.500000	0.143905   
369.000000	0.106994   
369.500000	0.020793   
370.000000	-0.134769  
370.500000	-0.370997  
371.000000	-0.575173  
371.500000	-0.556946  
372.000000	-0.510829  
372.500000	-0.325767  
373.000000	-0.089248  
373.500000	0.094416   
374.000000	0.277349   
374.500000	0.400128   
375.000000	0.361564   
375.500000	0.245272   
376.000000	0.200933   
376.500000	0.095794   
377.000000	0.122543   
377.500000	0.226716   
378.000000	0.322642   
378.500000	0.474937   
379.000000	0.628059   
379.500000	0.631152   
380.000000	0.585638   
380.500000	0.485772   
381.000000	0.277420   
381.500000	0.088928   
382.000000	0.010484   
382.500000	-0.020276  
383.000000	0.022258   
383.500000	0.118193   
384.000000	0.134774   
384.500000	0.201033   
385.000000	0.237102   
385.500000	0.250225   
386.000000	0.212549   
386.500000	0.182930   
387.000000	0.167954   
387.500000	0.171675   
388.000000	0.183905   
388.500000	0.179615   
389.000000	0.229637   
389.500000	0.251441   
390.000000	0.258440   
390.500000	0.255975   
391.000000	0.235645   
391.500000	0.215814   
392.000000	0.209950   
392.500000	0.156123   
393.000000	0.143433   
393.500000	0.170905   
394.000000	0.191051   
394.500000	0.241118   
395.000000	0.293283   
395.500000	0.307213   
396.000000	0.304057   
396.500000	0.311876   
397.000000	0.269656   
397.500000	0.244386   
398.000000	0.229261   
398.500000	0.238940   
399.000000	0.311417   
399.500000	0.391187   
400.000000	0.451114   
400.500000	0.492518   
401.000000	0.517437   
401.500000	0.509799   
402.000000	0.507340   
402.500000	0.447136   
403.000000	0.368421   
403.500000	0.318327   
404.000000	0.251829   
404.500000	0.185158   
405.000000	0.124443   
405.500000	0.048202   
406.000000	0.008015   
406.500000	0.058325   
407.000000	0.094821   
407.500000	0.203632   
408.000000	0.333783   
408.500000	0.434888   
409.000000	0.527609   
409.500000	0.553459   
410.000000	0.516852   
410.500000	0.437340   
411.000000	0.371634   
411.500000	0.267213   
412.000000	0.239310   
412.500000	0.253310   
413.000000	0.287597   
413.500000	0.383335   
414.000000	0.432770   
414.500000	0.436533   
415.000000	0.393191   
415.500000	0.330854   
416.000000	0.210228   
416.500000	0.117441   
417.000000	0.046652   
417.500000	0.013736   
418.000000	0.087466   
418.500000	0.191153   
419.000000	0.322475   
419.500000	0.446763   
420.000000	0.539659   
420.500000	0.591785   
421.000000	0.617244   
421.500000	0.599882   
422.000000	0.546229   
422.500000	0.506136   
423.000000	0.466203   
423.500000	0.446299   
424.000000	0.441325   
424.500000	0.430880   
425.000000	0.414257   
425.500000	0.395083   
426.000000	0.393682   
426.500000	0.424475   
427.000000	0.483812   
427.500000	0.539450   
428.000000	0.607315   
428.500000	0.686433   
429.000000	0.752182   
429.500000	0.782931   
430.000000	0.763486   
430.500000	0.703162   
431.000000	0.653919   
431.500000	0.609363   
432.000000	0.575527   
432.500000	0.549562   
433.000000	0.537217   
433.500000	0.551236   
434.000000	0.565326   
434.500000	0.561014   
435.000000	0.547264   
435.500000	0.535854   
436.000000	0.508646   
436.500000	0.488364   
437.000000	0.472490   
437.500000	0.465056   
438.000000	0.482214   
438.500000	0.514341   
439.000000	0.544011   
439.500000	0.590698   
440.000000	0.635201   
440.500000	0.647896   
441.000000	0.645020   
441.500000	0.625504   
442.000000	0.591390   
442.500000	0.565496   
443.000000	0.549781   
443.500000	0.528947   
444.000000	0.528924   
444.500000	0.546444   

