PE FL                   SPECTRUM    ASCII       PEDS        1.60        
  -1
PM5565~1
23/10/10
11:24:36.00
23/10/10
11:24:36.00


444.500000
1









LS55
35.00
5.00
5.00
SCAN
1
20
100
100
0
500
0
2
0
1
7
ON
500 450 
1 0 0
#HDR
-1
-1
#GR
NM

0.00002384185791015625
0.0
300.000000
0.500000
290
8
103.561174
-0.808796
#DATA
300.000000	6.491000   
300.500000	5.624491   
301.000000	5.267137   
301.500000	5.662106   
302.000000	6.182199   
302.500000	6.982389   
303.000000	7.959403   
303.500000	9.418985   
304.000000	10.575364  
304.500000	11.235610  
305.000000	11.580527  
305.500000	11.879627  
306.000000	12.522052  
306.500000	13.118924  
307.000000	13.850672  
307.500000	14.490350  
308.000000	15.521569  
308.500000	16.654983  
309.000000	17.719619  
309.500000	18.621026  
310.000000	19.442420  
310.500000	20.229770  
311.000000	20.719598  
311.500000	21.137131  
312.000000	21.200286  
312.500000	21.482121  
313.000000	21.983190  
313.500000	22.331069  
314.000000	22.275693  
314.500000	22.439163  
315.000000	22.818890  
315.500000	23.299984  
316.000000	24.041421  
316.500000	24.902868  
317.000000	26.514641  
317.500000	28.523473  
318.000000	30.437787  
318.500000	31.968859  
319.000000	33.389190  
319.500000	34.662197  
320.000000	36.103988  
320.500000	37.455681  
321.000000	38.838392  
321.500000	40.758559  
322.000000	43.091284  
322.500000	45.608341  
323.000000	48.121975  
323.500000	50.459626  
324.000000	52.477189  
324.500000	54.656717  
325.000000	56.428829  
325.500000	58.293131  
326.000000	60.513441  
326.500000	63.035633  
327.000000	66.239767  
327.500000	70.082496  
328.000000	74.070728  
328.500000	78.049953  
329.000000	82.457892  
329.500000	86.642302  
330.000000	90.620461  
330.500000	94.022653  
331.000000	96.779385  
331.500000	99.247970  
332.000000	101.241915 
332.500000	102.803688 
333.000000	103.525394 
333.500000	103.561174 
334.000000	102.873151 
334.500000	101.434901 
335.000000	99.019465  
335.500000	95.812479  
336.000000	92.150740  
336.500000	87.990226  
337.000000	84.023746  
337.500000	79.690793  
338.000000	75.077262  
338.500000	70.405040  
339.000000	65.819710  
339.500000	61.086997  
340.000000	56.399202  
340.500000	51.874378  
341.000000	47.322144  
341.500000	43.366529  
342.000000	39.592640  
342.500000	35.992661  
343.000000	32.411676  
343.500000	28.938078  
344.000000	25.395408  
344.500000	21.856180  
345.000000	18.724955  
345.500000	16.000056  
346.000000	13.829667  
346.500000	12.107648  
347.000000	10.889939  
347.500000	10.154530  
348.000000	9.670631   
348.500000	9.209045   
349.000000	8.579636   
349.500000	7.864107   
350.000000	7.115557   
350.500000	6.313573   
351.000000	5.483208   
351.500000	4.640881   
352.000000	3.930442   
352.500000	3.521161   
353.000000	3.182666   
353.500000	2.859538   
354.000000	2.563343   
354.500000	2.204394   
355.000000	1.871023   
355.500000	1.594132   
356.000000	1.288967   
356.500000	0.935186   
357.000000	0.817034   
357.500000	0.806657   
358.000000	0.886595   
358.500000	0.986542   
359.000000	1.033050   
359.500000	1.005177   
360.000000	0.854390   
360.500000	0.609648   
361.000000	0.205003   
361.500000	-0.129938  
362.000000	-0.436088  
362.500000	-0.694081  
363.000000	-0.808796  
363.500000	-0.746251  
364.000000	-0.526668  
364.500000	-0.246216  
365.000000	0.030060   
365.500000	0.237743   
366.000000	0.412428   
366.500000	0.453455   
367.000000	0.345538   
367.500000	0.201101   
368.000000	0.082441   
368.500000	0.046150   
369.000000	0.089198   
369.500000	0.200172   
370.000000	0.358116   
370.500000	0.501100   
371.000000	0.617695   
371.500000	0.648346   
372.000000	0.698255   
372.500000	0.655777   
373.000000	0.557047   
373.500000	0.446731   
374.000000	0.397081   
374.500000	0.436275   
375.000000	0.456806   
375.500000	0.451295   
376.000000	0.422234   
376.500000	0.431791   
377.000000	0.404662   
377.500000	0.363290   
378.000000	0.302844   
378.500000	0.248855   
379.000000	0.275730   
379.500000	0.271966   
380.000000	0.180129   
380.500000	0.120859   
381.000000	0.061417   
381.500000	-0.019999  
382.000000	-0.062678  
382.500000	-0.082289  
383.000000	-0.082499  
383.500000	-0.002663  
384.000000	0.111958   
384.500000	0.179550   
385.000000	0.305650   
385.500000	0.411249   
386.000000	0.461775   
386.500000	0.455290   
387.000000	0.404569   
387.500000	0.304940   
388.000000	0.283496   
388.500000	0.292001   
389.000000	0.307613   
389.500000	0.399366   
390.000000	0.501989   
390.500000	0.613758   
391.000000	0.697301   
391.500000	0.689758   
392.000000	0.579779   
392.500000	0.452273   
393.000000	0.271164   
393.500000	0.087229   
394.000000	-0.035234  
394.500000	-0.089753  
395.000000	-0.068255  
395.500000	0.051960   
396.000000	0.213906   
396.500000	0.343253   
397.000000	0.447937   
397.500000	0.492703   
398.000000	0.441469   
398.500000	0.368519   
399.000000	0.268187   
399.500000	0.163796   
400.000000	0.105488   
400.500000	0.131606   
401.000000	0.199273   
401.500000	0.297266   
402.000000	0.416949   
402.500000	0.492809   
403.000000	0.535421   
403.500000	0.524021   
404.000000	0.468383   
404.500000	0.396379   
405.000000	0.357886   
405.500000	0.341162   
406.000000	0.352854   
406.500000	0.393975   
407.000000	0.427460   
407.500000	0.427187   
408.000000	0.417253   
408.500000	0.387343   
409.000000	0.332945   
409.500000	0.282554   
410.000000	0.235405   
410.500000	0.213826   
411.000000	0.222915   
411.500000	0.272287   
412.000000	0.283911   
412.500000	0.304666   
413.000000	0.317897   
413.500000	0.308635   
414.000000	0.257067   
414.500000	0.167717   
415.000000	0.084041   
415.500000	0.023582   
416.000000	0.040202   
416.500000	0.060974   
417.000000	0.125663   
417.500000	0.206521   
418.000000	0.292641   
418.500000	0.366168   
419.000000	0.408176   
419.500000	0.431135   
420.000000	0.407912   
420.500000	0.385157   
421.000000	0.341691   
421.500000	0.320604   
422.000000	0.301124   
422.500000	0.307058   
423.000000	0.315966   
423.500000	0.320241   
424.000000	0.356158   
424.500000	0.400869   
425.000000	0.425739   
425.500000	0.412479   
426.000000	0.387831   
426.500000	0.345682   
427.000000	0.317171   
427.500000	0.281859   
428.000000	0.246219   
428.500000	0.232453   
429.000000	0.253174   
429.500000	0.286506   
430.000000	0.304014   
430.500000	0.290026   
431.000000	0.270038   
431.500000	0.277608   
432.000000	0.273761   
432.500000	0.275903   
433.000000	0.271278   
433.500000	0.270177   
434.000000	0.281996   
434.500000	0.289388   
435.000000	0.285074   
435.500000	0.283507   
436.000000	0.306053   
436.500000	0.322160   
437.000000	0.359361   
437.500000	0.405847   
438.000000	0.420784   
438.500000	0.432206   
439.000000	0.406953   
439.500000	0.364411   
440.000000	0.324620   
440.500000	0.297901   
441.000000	0.291458   
441.500000	0.322553   
442.000000	0.377009   
442.500000	0.426477   
443.000000	0.470638   
443.500000	0.484965   
444.000000	0.474502   
444.500000	0.448726   

