PE FL                   SPECTRUM    ASCII       PEDS        1.60        
  -1
PM3565~1
23/10/10
11:23:28.00
23/10/10
11:23:28.00


444.500000
1









LS55
25.00
5.00
5.00
SCAN
1
20
100
100
0
500
0
2
0
1
7
ON
500 450 
1 0 0
#HDR
-1
-1
#GR
NM

0.00002384185791015625
0.0
300.000000
0.500000
290
8
111.905547
-3.096000
#DATA
300.000000	-3.096000  
300.500000	-2.530865  
301.000000	-2.053167  
301.500000	-1.769678  
302.000000	-1.644587  
302.500000	-1.371211  
303.000000	-1.307064  
303.500000	-1.245774  
304.000000	-0.962734  
304.500000	-0.617219  
305.000000	-0.003471  
305.500000	0.874595   
306.000000	1.644836   
306.500000	2.125349   
307.000000	2.487323   
307.500000	2.502994   
308.000000	2.205465   
308.500000	1.962163   
309.000000	1.591254   
309.500000	1.475601   
310.000000	1.696225   
310.500000	2.301084   
311.000000	3.299825   
311.500000	4.590700   
312.000000	6.097736   
312.500000	7.672819   
313.000000	9.296742   
313.500000	10.803254  
314.000000	12.101849  
314.500000	12.903974  
315.000000	13.235997  
315.500000	13.478102  
316.000000	13.507392  
316.500000	13.664559  
317.000000	14.070551  
317.500000	14.266673  
318.000000	14.874856  
318.500000	15.965395  
319.000000	17.212372  
319.500000	18.627623  
320.000000	20.355014  
320.500000	22.299477  
321.000000	24.593892  
321.500000	27.477162  
322.000000	30.159069  
322.500000	32.886535  
323.000000	35.482429  
323.500000	38.101193  
324.000000	40.704282  
324.500000	43.283225  
325.000000	45.971460  
325.500000	49.027297  
326.000000	52.674005  
326.500000	56.535624  
327.000000	60.601467  
327.500000	64.723666  
328.000000	69.332639  
328.500000	74.492798  
329.000000	80.032432  
329.500000	85.381018  
330.000000	90.557012  
330.500000	95.632674  
331.000000	100.260032 
331.500000	104.314527 
332.000000	107.163658 
332.500000	109.241338 
333.000000	110.651934 
333.500000	111.776836 
334.000000	111.905547 
334.500000	110.759085 
335.000000	109.317141 
335.500000	107.401012 
336.000000	105.005399 
336.500000	101.826696 
337.000000	98.021299  
337.500000	93.919261  
338.000000	89.934419  
338.500000	85.682414  
339.000000	80.439789  
339.500000	74.874791  
340.000000	69.029114  
340.500000	63.264817  
341.000000	57.660497  
341.500000	52.043153  
342.000000	46.950741  
342.500000	42.425275  
343.000000	38.540461  
343.500000	34.812152  
344.000000	31.310720  
344.500000	27.923641  
345.000000	24.626763  
345.500000	21.712042  
346.000000	18.796584  
346.500000	16.275027  
347.000000	14.138846  
347.500000	12.433764  
348.000000	11.212599  
348.500000	10.301435  
349.000000	9.517746   
349.500000	8.789999   
350.000000	8.227073   
350.500000	7.619317   
351.000000	6.949603   
351.500000	6.281089   
352.000000	5.621447   
352.500000	4.983994   
353.000000	4.307163   
353.500000	3.727688   
354.000000	3.185802   
354.500000	2.780787   
355.000000	2.490519   
355.500000	2.220350   
356.000000	1.983910   
356.500000	1.707402   
357.000000	1.498485   
357.500000	1.243578   
358.000000	0.919882   
358.500000	0.613366   
359.000000	0.382636   
359.500000	0.219272   
360.000000	0.090472   
360.500000	0.012415   
361.000000	-0.108234  
361.500000	-0.131022  
362.000000	-0.052868  
362.500000	0.097449   
363.000000	0.321144   
363.500000	0.635745   
364.000000	0.992719   
364.500000	1.246674   
365.000000	1.410092   
365.500000	1.433615   
366.000000	1.311273   
366.500000	1.093912   
367.000000	0.892402   
367.500000	0.681546   
368.000000	0.524069   
368.500000	0.455607   
369.000000	0.393770   
369.500000	0.405038   
370.000000	0.453703   
370.500000	0.533614   
371.000000	0.544169   
371.500000	0.651085   
372.000000	0.701805   
372.500000	0.688591   
373.000000	0.684465   
373.500000	0.622319   
374.000000	0.546461   
374.500000	0.372462   
375.000000	0.239852   
375.500000	0.093769   
376.000000	0.045707   
376.500000	0.038966   
377.000000	0.077666   
377.500000	0.176309   
378.000000	0.285907   
378.500000	0.444989   
379.000000	0.519343   
379.500000	0.613758   
380.000000	0.671527   
380.500000	0.641442   
381.000000	0.551882   
381.500000	0.454927   
382.000000	0.358114   
382.500000	0.299432   
383.000000	0.255901   
383.500000	0.208679   
384.000000	0.217025   
384.500000	0.285138   
385.000000	0.309110   
385.500000	0.266728   
386.000000	0.227865   
386.500000	0.189444   
387.000000	0.178321   
387.500000	0.175339   
388.000000	0.151797   
388.500000	0.145037   
389.000000	0.231103   
389.500000	0.342834   
390.000000	0.475343   
390.500000	0.589633   
391.000000	0.730421   
391.500000	0.872907   
392.000000	1.012968   
392.500000	1.076829   
393.000000	1.072316   
393.500000	1.028645   
394.000000	0.940410   
394.500000	0.840650   
395.000000	0.673778   
395.500000	0.530023   
396.000000	0.430564   
396.500000	0.372262   
397.000000	0.397283   
397.500000	0.452642   
398.000000	0.553702   
398.500000	0.664575   
399.000000	0.790246   
399.500000	0.869379   
400.000000	0.888843   
400.500000	0.900810   
401.000000	0.827930   
401.500000	0.768871   
402.000000	0.679382   
402.500000	0.593380   
403.000000	0.507310   
403.500000	0.476867   
404.000000	0.497812   
404.500000	0.528102   
405.000000	0.592427   
405.500000	0.630883   
406.000000	0.706657   
406.500000	0.786820   
407.000000	0.838209   
407.500000	0.796394   
408.000000	0.707011   
408.500000	0.582636   
409.000000	0.413904   
409.500000	0.245166   
410.000000	0.120424   
410.500000	0.057066   
411.000000	0.080834   
411.500000	0.161640   
412.000000	0.254918   
412.500000	0.367900   
413.000000	0.454251   
413.500000	0.508639   
414.000000	0.504758   
414.500000	0.468829   
415.000000	0.431641   
415.500000	0.396325   
416.000000	0.353525   
416.500000	0.335518   
417.000000	0.346828   
417.500000	0.357354   
418.000000	0.395343   
418.500000	0.424118   
419.000000	0.438793   
419.500000	0.474072   
420.000000	0.526844   
420.500000	0.572192   
421.000000	0.624461   
421.500000	0.665601   
422.000000	0.668732   
422.500000	0.684478   
423.000000	0.705942   
423.500000	0.691216   
424.000000	0.665715   
424.500000	0.663445   
425.000000	0.652830   
425.500000	0.645455   
426.000000	0.638902   
426.500000	0.618563   
427.000000	0.592399   
427.500000	0.591905   
428.000000	0.595809   
428.500000	0.594614   
429.000000	0.607971   
429.500000	0.612954   
430.000000	0.593455   
430.500000	0.583743   
431.000000	0.582287   
431.500000	0.565442   
432.000000	0.574971   
432.500000	0.593804   
433.000000	0.616942   
433.500000	0.649632   
434.000000	0.667784   
434.500000	0.638181   
435.000000	0.593232   
435.500000	0.538730   
436.000000	0.474244   
436.500000	0.440690   
437.000000	0.423243   
437.500000	0.425220   
438.000000	0.445183   
438.500000	0.491248   
439.000000	0.528678   
439.500000	0.562513   
440.000000	0.577592   
440.500000	0.583435   
441.000000	0.605566   
441.500000	0.620681   
442.000000	0.621283   
442.500000	0.599244   
443.000000	0.567354   
443.500000	0.524373   
444.000000	0.487018   
444.500000	0.447043   

