PE FL                   SPECTRUM    ASCII       PEDS        1.60        
  -1
PM1380~1
23/10/12
11:23:18.00
23/10/12
11:23:18.00


444.500000
1









LS55
50.00
5.00
5.00
SCAN
1
20
100
500
0
500
0
2
0
1
7
ON
900 316 
1 0 0
#HDR
-1
-1
#GR
NM

0.00002384185791015625
0.0
250.000000
0.500000
390
8
3.152417
-3.504000
#DATA
250.000000	-3.504000 
250.500000	-3.274918 
251.000000	-3.026885 
251.500000	-3.179506 
252.000000	-3.166448 
252.500000	-3.485456 
253.000000	-3.419908 
253.500000	-3.282945 
254.000000	-2.946218 
254.500000	-2.478892 
255.000000	-1.943646 
255.500000	-1.304271 
256.000000	-1.206651 
256.500000	-1.251334 
257.000000	-1.702672 
257.500000	-1.961452 
258.000000	-2.037712 
258.500000	-1.944716 
259.000000	-1.624353 
259.500000	-0.810288 
260.000000	0.320070  
260.500000	1.284379  
261.000000	1.981527  
261.500000	1.929784  
262.000000	1.640001  
262.500000	1.229829  
263.000000	0.354464  
263.500000	-0.844439 
264.000000	-1.581491 
264.500000	-1.965413 
265.000000	-1.652609 
265.500000	-0.955839 
266.000000	-0.323558 
266.500000	0.444306  
267.000000	1.095086  
267.500000	1.374127  
268.000000	1.026312  
268.500000	0.372693  
269.000000	-0.525606 
269.500000	-1.234385 
270.000000	-1.449774 
270.500000	-1.644787 
271.000000	-1.532501 
271.500000	-1.399770 
272.000000	-1.245497 
272.500000	-1.217767 
273.000000	-1.372059 
273.500000	-1.607317 
274.000000	-1.953422 
274.500000	-2.071732 
275.000000	-2.000174 
275.500000	-1.571649 
276.000000	-1.276994 
276.500000	-1.041869 
277.000000	-0.847667 
277.500000	-0.791482 
278.000000	-0.720230 
278.500000	-0.582015 
279.000000	-0.333360 
279.500000	-0.092404 
280.000000	0.071897  
280.500000	0.294786  
281.000000	0.214042  
281.500000	-0.186904 
282.000000	-0.617115 
282.500000	-1.214554 
283.000000	-1.587523 
283.500000	-1.677782 
284.000000	-1.446182 
284.500000	-0.945739 
285.000000	0.032973  
285.500000	0.943440  
286.000000	1.792198  
286.500000	2.463161  
287.000000	2.776162  
287.500000	2.865924  
288.000000	2.797487  
288.500000	2.820310  
289.000000	2.829984  
289.500000	2.935296  
290.000000	2.988813  
290.500000	2.935932  
291.000000	2.764921  
291.500000	2.575192  
292.000000	2.148998  
292.500000	1.391905  
293.000000	0.714306  
293.500000	0.233554  
294.000000	-0.216819 
294.500000	-0.540766 
295.000000	-0.737401 
295.500000	-0.663332 
296.000000	-0.474484 
296.500000	-0.461442 
297.000000	-0.680461 
297.500000	-0.743798 
298.000000	-0.559970 
298.500000	-0.284360 
299.000000	-0.052996 
299.500000	0.355670  
300.000000	1.066517  
300.500000	1.883023  
301.000000	2.369723  
301.500000	2.495329  
302.000000	2.782512  
302.500000	3.040267  
303.000000	3.152417  
303.500000	2.917536  
304.000000	2.711777  
304.500000	2.730149  
305.000000	2.779890  
305.500000	2.516086  
306.000000	1.933379  
306.500000	1.607961  
307.000000	1.413756  
307.500000	1.202050  
308.000000	0.871819  
308.500000	0.718093  
309.000000	0.752761  
309.500000	0.831440  
310.000000	0.906055  
310.500000	0.786863  
311.000000	0.841915  
311.500000	0.908336  
312.000000	0.627110  
312.500000	0.417266  
313.000000	0.334743  
313.500000	0.564019  
314.000000	0.679802  
314.500000	0.827345  
315.000000	1.092940  
315.500000	1.424978  
316.000000	1.702827  
316.500000	1.511565  
317.000000	1.009751  
317.500000	0.478617  
318.000000	0.166244  
318.500000	-0.126328 
319.000000	-0.354134 
319.500000	-0.281771 
320.000000	0.054687  
320.500000	0.517894  
321.000000	0.862470  
321.500000	0.900595  
322.000000	0.773168  
322.500000	0.570823  
323.000000	0.281375  
323.500000	-0.082559 
324.000000	-0.361496 
324.500000	-0.599636 
325.000000	-0.804058 
325.500000	-0.745874 
326.000000	-0.598240 
326.500000	-0.236727 
327.000000	0.209628  
327.500000	0.787040  
328.000000	1.351531  
328.500000	1.800160  
329.000000	1.915052  
329.500000	1.801445  
330.000000	1.458186  
330.500000	0.943364  
331.000000	0.299382  
331.500000	-0.234566 
332.000000	-0.544594 
332.500000	-0.632129 
333.000000	-0.474704 
333.500000	-0.300429 
334.000000	0.038300  
334.500000	0.237298  
335.000000	0.348635  
335.500000	0.158229  
336.000000	0.008868  
336.500000	-0.053250 
337.000000	-0.216991 
337.500000	-0.335483 
338.000000	-0.492862 
338.500000	-0.394637 
339.000000	-0.351285 
339.500000	-0.320777 
340.000000	-0.479940 
340.500000	-0.566946 
341.000000	-0.549932 
341.500000	-0.573318 
342.000000	-0.557963 
342.500000	-0.519993 
343.000000	-0.294742 
343.500000	-0.040883 
344.000000	0.206540  
344.500000	0.323750  
345.000000	0.390018  
345.500000	0.443647  
346.000000	0.454933  
346.500000	0.345976  
347.000000	0.161518  
347.500000	-0.107363 
348.000000	-0.471411 
348.500000	-0.769687 
349.000000	-0.994362 
349.500000	-1.075924 
350.000000	-0.934377 
350.500000	-0.696299 
351.000000	-0.492722 
351.500000	-0.217233 
352.000000	0.054283  
352.500000	0.243176  
353.000000	0.332291  
353.500000	0.290754  
354.000000	0.251869  
354.500000	0.381976  
355.000000	0.462221  
355.500000	0.464818  
356.000000	0.527628  
356.500000	0.653146  
357.000000	0.849133  
357.500000	1.032520  
358.000000	1.080353  
358.500000	1.146199  
359.000000	1.328723  
359.500000	1.374658  
360.000000	1.423980  
360.500000	1.348929  
361.000000	1.249398  
361.500000	1.254158  
362.000000	1.319100  
362.500000	1.331468  
363.000000	1.396122  
363.500000	1.486083  
364.000000	1.440202  
364.500000	1.521634  
365.000000	1.504827  
365.500000	1.472913  
366.000000	1.428613  
366.500000	1.389411  
367.000000	1.372611  
367.500000	1.471010  
368.000000	1.529547  
368.500000	1.507564  
369.000000	1.650917  
369.500000	1.771032  
370.000000	1.843594  
370.500000	1.822435  
371.000000	1.689523  
371.500000	1.546771  
372.000000	1.481924  
372.500000	1.430070  
373.000000	1.308906  
373.500000	1.154239  
374.000000	1.072300  
374.500000	0.956824  
375.000000	0.760940  
375.500000	0.541787  
376.000000	0.372109  
376.500000	0.379862  
377.000000	0.609409  
377.500000	0.860724  
378.000000	1.104429  
378.500000	1.484966  
379.000000	1.848565  
379.500000	2.066948  
380.000000	2.105131  
380.500000	2.022981  
381.000000	1.914482  
381.500000	1.931589  
382.000000	1.873573  
382.500000	1.845312  
383.000000	1.884573  
383.500000	1.979512  
384.000000	2.074209  
384.500000	2.164205  
385.000000	2.209196  
385.500000	2.243447  
386.000000	2.278605  
386.500000	2.186462  
387.000000	2.112143  
387.500000	2.000151  
388.000000	1.874663  
388.500000	1.768799  
389.000000	1.716834  
389.500000	1.716807  
390.000000	1.804483  
390.500000	1.877586  
391.000000	1.940368  
391.500000	2.089439  
392.000000	2.205025  
392.500000	2.253087  
393.000000	2.255458  
393.500000	2.234463  
394.000000	2.209524  
394.500000	2.195178  
395.000000	2.158853  
395.500000	2.144550  
396.000000	2.150277  
396.500000	2.090984  
397.000000	2.023384  
397.500000	1.949428  
398.000000	1.856029  
398.500000	1.764807  
399.000000	1.689363  
399.500000	1.635091  
400.000000	1.638995  
400.500000	1.692714  
401.000000	1.671875  
401.500000	1.655051  
402.000000	1.611607  
402.500000	1.551243  
403.000000	1.479221  
403.500000	1.385856  
404.000000	1.282661  
404.500000	1.255060  
405.000000	1.288081  
405.500000	1.260036  
406.000000	1.226238  
406.500000	1.186171  
407.000000	1.157352  
407.500000	1.147012  
408.000000	1.118201  
408.500000	1.053148  
409.000000	1.027506  
409.500000	1.045479  
410.000000	1.066780  
410.500000	1.038720  
411.000000	0.976886  
411.500000	0.903289  
412.000000	0.851883  
412.500000	0.790491  
413.000000	0.704716  
413.500000	0.654880  
414.000000	0.616424  
414.500000	0.594870  
415.000000	0.586459  
415.500000	0.584491  
416.000000	0.579252  
416.500000	0.578431  
417.000000	0.608659  
417.500000	0.660582  
418.000000	0.733719  
418.500000	0.779762  
419.000000	0.794976  
419.500000	0.813832  
420.000000	0.825076  
420.500000	0.826465  
421.000000	0.778689  
421.500000	0.732981  
422.000000	0.696010  
422.500000	0.652812  
423.000000	0.619961  
423.500000	0.563950  
424.000000	0.512661  
424.500000	0.468131  
425.000000	0.432967  
425.500000	0.387292  
426.000000	0.358803  
426.500000	0.345621  
427.000000	0.314185  
427.500000	0.283499  
428.000000	0.259722  
428.500000	0.244530  
429.000000	0.246379  
429.500000	0.267371  
430.000000	0.295558  
430.500000	0.341453  
431.000000	0.397329  
431.500000	0.445150  
432.000000	0.473315  
432.500000	0.491885  
433.000000	0.491035  
433.500000	0.499209  
434.000000	0.519122  
434.500000	0.535300  
435.000000	0.564846  
435.500000	0.587897  
436.000000	0.608157  
436.500000	0.622844  
437.000000	0.612506  
437.500000	0.580598  
438.000000	0.545208  
438.500000	0.511790  
439.000000	0.471121  
439.500000	0.452423  
440.000000	0.431327  
440.500000	0.400540  
441.000000	0.382767  
441.500000	0.360400  
442.000000	0.333993  
442.500000	0.288455  
443.000000	0.240622  
443.500000	0.199897  
444.000000	0.188573  
444.500000	0.186658  

