PE FL                   SPECTRUM    ASCII       PEDS        1.60        
  -1
PMPPNS~1
23/10/12
11:17:14.00
23/10/12
11:17:14.00


444.500000
1









LS55
5.00
5.00
5.00
SCAN
1
20
100
500
0
500
0
2
0
1
7
ON
900 316 
1 0 0
#HDR
-1
-1
#GR
NM

0.00002384185791015625
0.0
250.000000
0.500000
390
8
47.924361
-4.183591
#DATA
250.000000	-1.555000 
250.500000	-2.206841 
251.000000	-2.297302 
251.500000	-2.016607 
252.000000	-1.786598 
252.500000	-1.596246 
253.000000	-0.947718 
253.500000	0.133215  
254.000000	1.066413  
254.500000	1.477141  
255.000000	1.665908  
255.500000	1.877915  
256.000000	1.758231  
256.500000	1.016577  
257.000000	-0.216441 
257.500000	-1.737539 
258.000000	-2.758540 
258.500000	-3.419206 
259.000000	-3.898743 
259.500000	-4.183591 
260.000000	-3.965470 
260.500000	-3.233650 
261.000000	-2.604354 
261.500000	-2.318706 
262.000000	-2.138147 
262.500000	-1.934227 
263.000000	-1.465468 
263.500000	-0.792468 
264.000000	-0.385261 
264.500000	-0.135511 
265.000000	0.067041  
265.500000	0.185071  
266.000000	-0.384730 
266.500000	-1.024223 
267.000000	-1.508221 
267.500000	-1.678551 
268.000000	-1.361466 
268.500000	-1.097995 
269.000000	-0.803581 
269.500000	-0.371017 
270.000000	0.142441  
270.500000	0.179967  
271.000000	-0.012360 
271.500000	-0.352435 
272.000000	-0.471942 
272.500000	-0.400832 
273.000000	-0.460785 
273.500000	-0.335410 
274.000000	-0.250444 
274.500000	-0.104136 
275.000000	-0.052084 
275.500000	-0.150395 
276.000000	-0.567322 
276.500000	-0.747628 
277.000000	-0.866185 
277.500000	-1.291933 
278.000000	-1.690586 
278.500000	-2.029494 
279.000000	-2.113793 
279.500000	-2.233244 
280.000000	-2.098123 
280.500000	-2.298229 
281.000000	-2.318400 
281.500000	-2.261201 
282.000000	-2.165629 
282.500000	-2.159797 
283.000000	-2.014171 
283.500000	-1.605599 
284.000000	-1.236687 
284.500000	-0.710454 
285.000000	-0.169612 
285.500000	0.447269  
286.000000	1.255663  
286.500000	2.272233  
287.000000	2.902417  
287.500000	3.600858  
288.000000	4.073463  
288.500000	4.075727  
289.000000	3.605203  
289.500000	3.104348  
290.000000	2.532108  
290.500000	1.994840  
291.000000	1.529712  
291.500000	0.651589  
292.000000	0.285181  
292.500000	0.376363  
293.000000	0.556659  
293.500000	0.296140  
294.000000	0.362489  
294.500000	0.593795  
295.000000	1.271462  
295.500000	2.198735  
296.000000	2.482760  
296.500000	2.535901  
297.000000	2.681514  
297.500000	2.801135  
298.000000	2.171491  
298.500000	1.470853  
299.000000	0.880789  
299.500000	0.529071  
300.000000	0.827498  
300.500000	1.082050  
301.000000	1.355568  
301.500000	1.777818  
302.000000	2.454545  
302.500000	2.913743  
303.000000	3.021650  
303.500000	2.921142  
304.000000	2.348240  
304.500000	1.882881  
305.000000	1.191077  
305.500000	0.687108  
306.000000	0.206652  
306.500000	-0.029092 
307.000000	0.116665  
307.500000	0.394743  
308.000000	1.072258  
308.500000	1.769654  
309.000000	2.510873  
309.500000	2.833881  
310.000000	3.227501  
310.500000	3.403774  
311.000000	3.366154  
311.500000	3.373327  
312.000000	3.291694  
312.500000	3.326889  
313.000000	3.630121  
313.500000	4.118549  
314.000000	4.447683  
314.500000	4.896451  
315.000000	5.101364  
315.500000	5.145780  
316.000000	5.059547  
316.500000	4.755585  
317.000000	4.112765  
317.500000	3.954067  
318.000000	4.100708  
318.500000	4.432941  
319.000000	4.980140  
319.500000	5.451111  
320.000000	5.835120  
320.500000	6.309668  
321.000000	6.630765  
321.500000	6.455423  
322.000000	6.589765  
322.500000	6.804409  
323.000000	7.151041  
323.500000	7.775487  
324.000000	8.536638  
324.500000	9.263578  
325.000000	10.101185 
325.500000	10.802732 
326.000000	11.083414 
326.500000	11.548223 
327.000000	11.860977 
327.500000	12.057437 
328.000000	12.197402 
328.500000	12.339814 
329.000000	12.301942 
329.500000	12.289647 
330.000000	12.090252 
330.500000	11.748231 
331.000000	11.704083 
331.500000	11.799421 
332.000000	11.779660 
332.500000	11.903935 
333.000000	12.228669 
333.500000	12.611617 
334.000000	13.040515 
334.500000	13.367604 
335.000000	13.384351 
335.500000	13.357414 
336.000000	13.356985 
336.500000	13.169586 
337.000000	12.867511 
337.500000	12.853910 
338.000000	13.114467 
338.500000	13.644733 
339.000000	14.334974 
339.500000	14.956469 
340.000000	15.396863 
340.500000	15.662912 
341.000000	15.627857 
341.500000	15.065502 
342.000000	14.540511 
342.500000	13.904874 
343.000000	13.270576 
343.500000	12.881807 
344.000000	12.901468 
344.500000	13.237914 
345.000000	13.672244 
345.500000	14.363720 
346.000000	14.982975 
346.500000	15.895300 
347.000000	16.811546 
347.500000	17.600044 
348.000000	18.403959 
348.500000	19.147474 
349.000000	19.977637 
349.500000	20.629710 
350.000000	21.206874 
350.500000	21.792559 
351.000000	22.526083 
351.500000	23.389426 
352.000000	24.115508 
352.500000	25.059899 
353.000000	25.870522 
353.500000	26.747962 
354.000000	27.561545 
354.500000	28.423904 
355.000000	29.537163 
355.500000	30.971173 
356.000000	32.931265 
356.500000	34.860854 
357.000000	36.992780 
357.500000	39.159604 
358.000000	41.095035 
358.500000	42.481034 
359.000000	43.373747 
359.500000	43.566448 
360.000000	43.537834 
360.500000	43.838606 
361.000000	44.189958 
361.500000	44.483282 
362.000000	45.231962 
362.500000	46.177096 
363.000000	46.991342 
363.500000	47.804753 
364.000000	47.924361 
364.500000	47.429646 
365.000000	46.871817 
365.500000	46.261568 
366.000000	45.108999 
366.500000	44.095727 
367.000000	43.197903 
367.500000	42.394044 
368.000000	41.974522 
368.500000	41.766685 
369.000000	41.331315 
369.500000	41.213884 
370.000000	41.470261 
370.500000	41.523882 
371.000000	41.530690 
371.500000	41.439802 
372.000000	41.248654 
372.500000	41.263289 
373.000000	41.643065 
373.500000	41.661510 
374.000000	41.991325 
374.500000	42.621556 
375.000000	43.513567 
375.500000	44.450134 
376.000000	45.356918 
376.500000	45.963472 
377.000000	46.431666 
377.500000	47.154176 
378.000000	47.425298 
378.500000	47.412194 
379.000000	46.870059 
379.500000	46.194964 
380.000000	45.390764 
380.500000	44.910187 
381.000000	44.242971 
381.500000	43.537856 
382.000000	43.418004 
382.500000	43.775282 
383.000000	44.291458 
383.500000	44.310279 
384.000000	43.946025 
384.500000	43.195409 
385.000000	42.515264 
385.500000	41.545498 
386.000000	40.107503 
386.500000	38.559074 
387.000000	37.140698 
387.500000	35.842807 
388.000000	34.307776 
388.500000	32.584154 
389.000000	30.575622 
389.500000	28.618143 
390.000000	26.645292 
390.500000	24.831965 
391.000000	23.143846 
391.500000	21.694411 
392.000000	20.519286 
392.500000	19.485383 
393.000000	18.733110 
393.500000	18.065389 
394.000000	17.511472 
394.500000	16.966347 
395.000000	16.622567 
395.500000	16.430254 
396.000000	16.371539 
396.500000	16.365300 
397.000000	16.371749 
397.500000	16.401792 
398.000000	16.286878 
398.500000	16.097512 
399.000000	15.744714 
399.500000	15.211186 
400.000000	14.477040 
400.500000	13.793128 
401.000000	13.161205 
401.500000	12.686292 
402.000000	12.332332 
402.500000	12.130676 
403.000000	12.091399 
403.500000	12.200158 
404.000000	12.269653 
404.500000	12.116751 
405.000000	11.893874 
405.500000	11.542488 
406.000000	11.108471 
406.500000	10.573742 
407.000000	10.027557 
407.500000	9.518607  
408.000000	9.224336  
408.500000	9.047150  
409.000000	8.860340  
409.500000	8.786718  
410.000000	8.784994  
410.500000	8.761698  
411.000000	8.715614  
411.500000	8.671335  
412.000000	8.504784  
412.500000	8.457381  
413.000000	8.488003  
413.500000	8.540503  
414.000000	8.647212  
414.500000	8.809167  
415.000000	8.940287  
415.500000	9.147832  
416.000000	9.488190  
416.500000	9.731263  
417.000000	9.998636  
417.500000	10.315802 
418.000000	10.695719 
418.500000	11.028323 
419.000000	11.267074 
419.500000	11.377145 
420.000000	11.503398 
420.500000	11.773001 
421.000000	11.984996 
421.500000	12.212588 
422.000000	12.484262 
422.500000	12.832470 
423.000000	13.253940 
423.500000	13.603810 
424.000000	13.837172 
424.500000	14.095559 
425.000000	14.498659 
425.500000	14.912947 
426.000000	15.335011 
426.500000	15.677850 
427.000000	15.964241 
427.500000	16.276319 
428.000000	16.517685 
428.500000	16.652249 
429.000000	16.833623 
429.500000	17.217810 
430.000000	17.756236 
430.500000	18.648099 
431.000000	19.840629 
431.500000	21.202785 
432.000000	22.678908 
432.500000	24.515304 
433.000000	26.475003 
433.500000	28.346194 
434.000000	30.197188 
434.500000	31.916521 
435.000000	33.506856 
435.500000	34.983257 
436.000000	36.125559 
436.500000	36.705477 
437.000000	37.177456 
437.500000	37.478202 
438.000000	37.537040 
438.500000	37.529592 
439.000000	37.499815 
439.500000	37.614829 
440.000000	38.242849 
440.500000	39.192557 
441.000000	40.174808 
441.500000	41.337751 
442.000000	42.554247 
442.500000	43.825769 
443.000000	45.145718 
443.500000	46.255788 
444.000000	46.987866 
444.500000	47.589519 

