PE FL                   SPECTRUM    ASCII       PEDS        1.60        
  -1
PM7370~1
23/10/12
11:20:36.00
23/10/12
11:20:36.00


444.500000
1









LS55
30.00
5.00
5.00
SCAN
1
20
100
500
0
500
0
2
0
1
7
ON
900 316 
1 0 0
#HDR
-1
-1
#GR
NM

0.00002384185791015625
0.0
250.000000
0.500000
390
8
7.123245
-5.000000
#DATA
250.000000	-5.000000 
250.500000	-3.592345 
251.000000	-2.783949 
251.500000	-2.172995 
252.000000	-1.421221 
252.500000	-0.415098 
253.000000	0.124451  
253.500000	0.299593  
254.000000	-0.031167 
254.500000	-0.526276 
255.000000	-0.862702 
255.500000	-1.362466 
256.000000	-2.101522 
256.500000	-2.655259 
257.000000	-2.801796 
257.500000	-2.742405 
258.000000	-2.241585 
258.500000	-1.785660 
259.000000	-1.493672 
259.500000	-1.011064 
260.000000	-0.502067 
260.500000	-0.318574 
261.000000	-0.502153 
261.500000	-0.923575 
262.000000	-1.307610 
262.500000	-1.458865 
263.000000	-1.525839 
263.500000	-1.880837 
264.000000	-2.072966 
264.500000	-2.241343 
265.000000	-2.070082 
265.500000	-1.706082 
266.000000	-1.272484 
266.500000	-0.647561 
267.000000	0.057063  
267.500000	0.676561  
268.000000	0.955036  
268.500000	0.927541  
269.000000	0.363865  
269.500000	-0.441753 
270.000000	-1.345016 
270.500000	-2.362252 
271.000000	-3.141586 
271.500000	-3.721156 
272.000000	-3.732926 
272.500000	-3.419167 
273.000000	-3.151014 
273.500000	-3.042461 
274.000000	-2.986873 
274.500000	-2.683688 
275.000000	-2.350945 
275.500000	-1.981330 
276.000000	-1.759406 
276.500000	-1.186913 
277.000000	-0.186860 
277.500000	0.412940  
278.000000	0.804972  
278.500000	0.907317  
279.000000	1.172749  
279.500000	1.178617  
280.000000	0.870286  
280.500000	0.271932  
281.000000	-0.259565 
281.500000	-0.452273 
282.000000	-0.733747 
282.500000	-0.852533 
283.000000	-1.041767 
283.500000	-0.984850 
284.000000	-1.050206 
284.500000	-1.446489 
285.000000	-1.651034 
285.500000	-1.715067 
286.000000	-1.575929 
286.500000	-1.368937 
287.000000	-1.071667 
287.500000	-0.706336 
288.000000	-0.088753 
288.500000	0.449804  
289.000000	0.287939  
289.500000	0.202238  
290.000000	0.242537  
290.500000	0.140222  
291.000000	-0.053192 
291.500000	-0.159765 
292.000000	-0.454546 
292.500000	-0.405235 
293.000000	-0.131331 
293.500000	-0.336500 
294.000000	-0.566056 
294.500000	-0.595072 
295.000000	-0.465276 
295.500000	-0.104360 
296.000000	0.588812  
296.500000	0.962166  
297.000000	1.418010  
297.500000	1.983788  
298.000000	2.072521  
298.500000	1.691721  
299.000000	1.091353  
299.500000	0.428145  
300.000000	-0.216462 
300.500000	-0.486035 
301.000000	-0.553684 
301.500000	-0.174150 
302.000000	0.766659  
302.500000	1.991993  
303.000000	2.938606  
303.500000	3.519144  
304.000000	3.772531  
304.500000	3.409167  
305.000000	2.879358  
305.500000	2.414459  
306.000000	2.124274  
306.500000	2.197091  
307.000000	2.934492  
307.500000	3.912906  
308.000000	5.063491  
308.500000	6.175870  
309.000000	6.566912  
309.500000	6.440311  
310.000000	5.942695  
310.500000	5.360632  
311.000000	4.690374  
311.500000	4.388400  
312.000000	4.590969  
312.500000	5.276438  
313.000000	6.245844  
313.500000	6.875214  
314.000000	7.123245  
314.500000	6.904941  
315.000000	6.472524  
315.500000	5.712381  
316.000000	4.580529  
316.500000	3.623990  
317.000000	2.994909  
317.500000	2.585430  
318.000000	2.535757  
318.500000	2.757124  
319.000000	3.043372  
319.500000	3.494170  
320.000000	3.843577  
320.500000	3.785903  
321.000000	3.702912  
321.500000	3.460194  
322.000000	3.067473  
322.500000	2.523831  
323.000000	2.090611  
323.500000	1.894557  
324.000000	2.010086  
324.500000	2.183725  
325.000000	2.254512  
325.500000	2.473806  
326.000000	2.527403  
326.500000	2.463426  
327.000000	2.206143  
327.500000	1.859108  
328.000000	1.684523  
328.500000	1.806356  
329.000000	2.042853  
329.500000	2.284090  
330.000000	2.546239  
330.500000	2.726171  
331.000000	2.887630  
331.500000	2.920785  
332.000000	2.749718  
332.500000	2.534290  
333.000000	2.352629  
333.500000	2.186884  
334.000000	2.147082  
334.500000	2.030295  
335.000000	1.844082  
335.500000	1.586822  
336.000000	1.250676  
336.500000	0.947948  
337.000000	0.647342  
337.500000	0.248960  
338.000000	-0.188272 
338.500000	-0.522110 
339.000000	-0.807675 
339.500000	-1.019682 
340.000000	-1.101479 
340.500000	-1.153775 
341.000000	-0.968066 
341.500000	-0.554711 
342.000000	-0.113047 
342.500000	0.227129  
343.000000	0.448430  
343.500000	0.601804  
344.000000	0.599270  
344.500000	0.558997  
345.000000	0.513145  
345.500000	0.586027  
346.000000	0.793341  
346.500000	1.049568  
347.000000	1.247856  
347.500000	1.283640  
348.000000	1.236400  
348.500000	0.994321  
349.000000	0.612068  
349.500000	0.301187  
350.000000	0.047249  
350.500000	-0.013372 
351.000000	0.051429  
351.500000	0.180746  
352.000000	0.305250  
352.500000	0.411830  
353.000000	0.483138  
353.500000	0.366345  
354.000000	0.265771  
354.500000	0.066725  
355.000000	-0.044364 
355.500000	-0.044416 
356.000000	0.125297  
356.500000	0.263998  
357.000000	0.324334  
357.500000	0.425830  
358.000000	0.445684  
358.500000	0.370580  
359.000000	0.125329  
359.500000	-0.109803 
360.000000	-0.324134 
360.500000	-0.394189 
361.000000	-0.390625 
361.500000	-0.333814 
362.000000	-0.242384 
362.500000	-0.124220 
363.000000	-0.116388 
363.500000	-0.180441 
364.000000	-0.265168 
364.500000	-0.412391 
365.000000	-0.438916 
365.500000	-0.442160 
366.000000	-0.376409 
366.500000	-0.300012 
367.000000	-0.152901 
367.500000	-0.131981 
368.000000	-0.180817 
368.500000	-0.195116 
369.000000	-0.247436 
369.500000	-0.180162 
370.000000	-0.085802 
370.500000	0.096270  
371.000000	0.335774  
371.500000	0.592763  
372.000000	0.799288  
372.500000	1.004149  
373.000000	1.181425  
373.500000	1.211468  
374.000000	1.229112  
374.500000	1.109123  
375.000000	0.942696  
375.500000	0.812550  
376.000000	0.645558  
376.500000	0.462111  
377.000000	0.395294  
377.500000	0.483927  
378.000000	0.634593  
378.500000	0.878803  
379.000000	0.996044  
379.500000	1.130482  
380.000000	1.262646  
380.500000	1.288928  
381.000000	1.164197  
381.500000	0.968026  
382.000000	0.835517  
382.500000	0.747631  
383.000000	0.723216  
383.500000	0.572853  
384.000000	0.456757  
384.500000	0.463121  
385.000000	0.515395  
385.500000	0.554392  
386.000000	0.540265  
386.500000	0.541688  
387.000000	0.625954  
387.500000	0.739602  
388.000000	0.746421  
388.500000	0.661255  
389.000000	0.593452  
389.500000	0.505173  
390.000000	0.429842  
390.500000	0.348379  
391.000000	0.287607  
391.500000	0.370507  
392.000000	0.506386  
392.500000	0.694131  
393.000000	0.763881  
393.500000	0.804387  
394.000000	0.797687  
394.500000	0.711388  
395.000000	0.605893  
395.500000	0.504881  
396.000000	0.472094  
396.500000	0.426668  
397.000000	0.480010  
397.500000	0.507791  
398.000000	0.514791  
398.500000	0.527686  
399.000000	0.486331  
399.500000	0.415480  
400.000000	0.406787  
400.500000	0.464152  
401.000000	0.514951  
401.500000	0.597783  
402.000000	0.634342  
402.500000	0.647567  
403.000000	0.659412  
403.500000	0.652831  
404.000000	0.599797  
404.500000	0.584587  
405.000000	0.634572  
405.500000	0.723802  
406.000000	0.855832  
406.500000	0.974545  
407.000000	1.065668  
407.500000	1.126872  
408.000000	1.182324  
408.500000	1.153625  
409.000000	1.056081  
409.500000	0.920157  
410.000000	0.817918  
410.500000	0.744212  
411.000000	0.718273  
411.500000	0.731493  
412.000000	0.743140  
412.500000	0.796287  
413.000000	0.882940  
413.500000	0.934352  
414.000000	0.921935  
414.500000	0.883763  
415.000000	0.799181  
415.500000	0.712328  
416.000000	0.664288  
416.500000	0.608218  
417.000000	0.557206  
417.500000	0.568858  
418.000000	0.594950  
418.500000	0.624159  
419.000000	0.686046  
419.500000	0.717518  
420.000000	0.711688  
420.500000	0.725843  
421.000000	0.723067  
421.500000	0.687415  
422.000000	0.665671  
422.500000	0.637071  
423.000000	0.625932  
423.500000	0.641866  
424.000000	0.679303  
424.500000	0.699039  
425.000000	0.702154  
425.500000	0.677420  
426.000000	0.628464  
426.500000	0.582267  
427.000000	0.545376  
427.500000	0.514985  
428.000000	0.494139  
428.500000	0.498300  
429.000000	0.512437  
429.500000	0.529352  
430.000000	0.542777  
430.500000	0.557724  
431.000000	0.569174  
431.500000	0.625230  
432.000000	0.698993  
432.500000	0.771881  
433.000000	0.836784  
433.500000	0.870938  
434.000000	0.859729  
434.500000	0.812155  
435.000000	0.738662  
435.500000	0.631498  
436.000000	0.553536  
436.500000	0.499206  
437.000000	0.494941  
437.500000	0.522829  
438.000000	0.561905  
438.500000	0.597125  
439.000000	0.625439  
439.500000	0.645922  
440.000000	0.643256  
440.500000	0.640311  
441.000000	0.609998  
441.500000	0.588876  
442.000000	0.571345  
442.500000	0.555196  
443.000000	0.544558  
443.500000	0.526333  
444.000000	0.521379  
444.500000	0.526731  

