PE FL                   SPECTRUM    ASCII       PEDS        1.60        
  -1
PM9370~1
23/10/12
11:21:57.00
23/10/12
11:21:57.00


444.500000
1









LS55
40.00
5.00
5.00
SCAN
1
20
100
500
0
500
0
2
0
1
7
ON
900 316 
1 0 0
#HDR
-1
-1
#GR
NM

0.00002384185791015625
0.0
250.000000
0.500000
390
8
3.130410
-4.999999
#DATA
250.000000	-4.999999 
250.500000	-4.165157 
251.000000	-3.828364 
251.500000	-3.118331 
252.000000	-2.573184 
252.500000	-1.705418 
253.000000	-1.013589 
253.500000	-0.388793 
254.000000	-0.340028 
254.500000	-0.309339 
255.000000	-0.416954 
255.500000	-0.928728 
256.000000	-1.460923 
256.500000	-2.333928 
257.000000	-2.857741 
257.500000	-3.196490 
258.000000	-2.870866 
258.500000	-2.288533 
259.000000	-1.728544 
259.500000	-1.389660 
260.000000	-0.867433 
260.500000	-0.265058 
261.000000	-0.303521 
261.500000	-0.599161 
262.000000	-1.306620 
262.500000	-1.545398 
263.000000	-1.408544 
263.500000	-1.238783 
264.000000	-1.187346 
264.500000	-0.972875 
265.000000	-0.336448 
265.500000	0.324586  
266.000000	0.873794  
266.500000	0.698559  
267.000000	0.405332  
267.500000	0.428079  
268.000000	0.651654  
268.500000	0.780876  
269.000000	0.706637  
269.500000	0.725770  
270.000000	0.896872  
270.500000	1.147755  
271.000000	1.048572  
271.500000	0.577187  
272.000000	0.204198  
272.500000	-0.334247 
273.000000	-0.684657 
273.500000	-1.086818 
274.000000	-1.557350 
274.500000	-1.951198 
275.000000	-2.361094 
275.500000	-2.619081 
276.000000	-2.888998 
276.500000	-3.018105 
277.000000	-3.283358 
277.500000	-3.342121 
278.000000	-2.986956 
278.500000	-2.414130 
279.000000	-1.762005 
279.500000	-1.410327 
280.000000	-1.147094 
280.500000	-0.695338 
281.000000	-0.446955 
281.500000	-0.607226 
282.000000	-1.151947 
282.500000	-1.566452 
283.000000	-1.808779 
283.500000	-2.039390 
284.000000	-2.494429 
284.500000	-2.888768 
285.000000	-2.943549 
285.500000	-2.749167 
286.000000	-2.255618 
286.500000	-1.802561 
287.000000	-0.968515 
287.500000	0.221066  
288.000000	1.258616  
288.500000	1.792412  
289.000000	1.798276  
289.500000	1.415319  
290.000000	0.731280  
290.500000	0.018336  
291.000000	-0.936087 
291.500000	-1.586173 
292.000000	-1.396632 
292.500000	-0.749107 
293.000000	0.005743  
293.500000	0.628179  
294.000000	1.151650  
294.500000	1.367728  
295.000000	1.555408  
295.500000	1.449724  
296.000000	1.339520  
296.500000	1.575860  
297.000000	2.081853  
297.500000	2.575951  
298.000000	2.695835  
298.500000	2.541833  
299.000000	1.823559  
299.500000	0.972324  
300.000000	0.087864  
300.500000	-0.681643 
301.000000	-1.229565 
301.500000	-1.202865 
302.000000	-0.461032 
302.500000	0.502522  
303.000000	1.671891  
303.500000	2.469156  
304.000000	2.840555  
304.500000	3.082112  
305.000000	3.130410  
305.500000	2.792002  
306.000000	2.278557  
306.500000	2.123316  
307.000000	1.741957  
307.500000	1.495488  
308.000000	1.247183  
308.500000	0.686017  
309.000000	0.193298  
309.500000	-0.228449 
310.000000	-0.701964 
310.500000	-1.093421 
311.000000	-0.780238 
311.500000	-0.456351 
312.000000	0.098088  
312.500000	0.778647  
313.000000	1.285166  
313.500000	1.572644  
314.000000	1.666309  
314.500000	1.386975  
315.000000	0.769363  
315.500000	0.366686  
316.000000	0.090075  
316.500000	-0.018482 
317.000000	0.023228  
317.500000	-0.040315 
318.000000	-0.081130 
318.500000	0.161079  
319.000000	0.529334  
319.500000	0.819541  
320.000000	1.130517  
320.500000	1.610874  
321.000000	2.190245  
321.500000	2.843945  
322.000000	3.054760  
322.500000	3.018028  
323.000000	2.991794  
323.500000	3.046369  
324.000000	3.113811  
324.500000	3.056797  
325.000000	3.011672  
325.500000	2.937767  
326.000000	2.927460  
326.500000	2.596660  
327.000000	2.009473  
327.500000	1.382636  
328.000000	0.908619  
328.500000	0.570307  
329.000000	0.392377  
329.500000	0.450640  
330.000000	0.652436  
330.500000	0.931175  
331.000000	1.077714  
331.500000	1.090472  
332.000000	0.916876  
332.500000	0.756585  
333.000000	0.672504  
333.500000	0.565747  
334.000000	0.619689  
334.500000	0.804441  
335.000000	1.055382  
335.500000	1.402811  
336.000000	1.798547  
336.500000	2.023879  
337.000000	2.149169  
337.500000	2.207670  
338.000000	2.150559  
338.500000	2.056089  
339.000000	1.877875  
339.500000	1.672538  
340.000000	1.587318  
340.500000	1.529847  
341.000000	1.546616  
341.500000	1.593258  
342.000000	1.711183  
342.500000	1.854250  
343.000000	2.020557  
343.500000	2.162492  
344.000000	2.240577  
344.500000	2.353755  
345.000000	2.296748  
345.500000	2.155804  
346.000000	1.980847  
346.500000	1.886799  
347.000000	1.741837  
347.500000	1.627958  
348.000000	1.547517  
348.500000	1.520397  
349.000000	1.657291  
349.500000	1.684746  
350.000000	1.707617  
350.500000	1.669842  
351.000000	1.782692  
351.500000	1.858260  
352.000000	1.897725  
352.500000	1.888069  
353.000000	1.962759  
353.500000	2.222022  
354.000000	2.334930  
354.500000	2.355706  
355.000000	2.358258  
355.500000	2.397265  
356.000000	2.436787  
356.500000	2.474727  
357.000000	2.320059  
357.500000	2.192551  
358.000000	2.314606  
358.500000	2.351241  
359.000000	2.251380  
359.500000	2.277571  
360.000000	2.167589  
360.500000	2.099187  
361.000000	2.075974  
361.500000	1.884011  
362.000000	1.690622  
362.500000	1.587837  
363.000000	1.562094  
363.500000	1.490848  
364.000000	1.596762  
364.500000	1.655323  
365.000000	1.788695  
365.500000	2.040054  
366.000000	2.189336  
366.500000	2.282361  
367.000000	2.280715  
367.500000	2.179130  
368.000000	1.958147  
368.500000	1.743185  
369.000000	1.444401  
369.500000	1.239204  
370.000000	1.092547  
370.500000	0.976862  
371.000000	0.989737  
371.500000	1.021029  
372.000000	0.988764  
372.500000	1.028054  
373.000000	1.083883  
373.500000	1.108580  
374.000000	1.210054  
374.500000	1.276916  
375.000000	1.315057  
375.500000	1.419928  
376.000000	1.492879  
376.500000	1.389099  
377.000000	1.255343  
377.500000	1.139377  
378.000000	1.026647  
378.500000	1.023254  
379.000000	0.997836  
379.500000	0.993671  
380.000000	1.064735  
380.500000	1.188710  
381.000000	1.251977  
381.500000	1.334930  
382.000000	1.395663  
382.500000	1.389782  
383.000000	1.367871  
383.500000	1.312296  
384.000000	1.246831  
384.500000	1.124379  
385.000000	1.001221  
385.500000	0.895568  
386.000000	0.840360  
386.500000	0.837867  
387.000000	0.853391  
387.500000	0.831776  
388.000000	0.840326  
388.500000	0.891945  
389.000000	0.907457  
389.500000	0.903215  
390.000000	0.863658  
390.500000	0.825388  
391.000000	0.779771  
391.500000	0.774002  
392.000000	0.732529  
392.500000	0.721539  
393.000000	0.733549  
393.500000	0.758624  
394.000000	0.805717  
394.500000	0.832705  
395.000000	0.819524  
395.500000	0.768535  
396.000000	0.750531  
396.500000	0.747567  
397.000000	0.797440  
397.500000	0.861850  
398.000000	0.942709  
398.500000	1.009426  
399.000000	1.033899  
399.500000	0.987520  
400.000000	0.882358  
400.500000	0.737199  
401.000000	0.594235  
401.500000	0.467481  
402.000000	0.416344  
402.500000	0.428601  
403.000000	0.489327  
403.500000	0.574320  
404.000000	0.646584  
404.500000	0.739397  
405.000000	0.825898  
405.500000	0.902410  
406.000000	0.905149  
406.500000	0.902662  
407.000000	0.873731  
407.500000	0.844776  
408.000000	0.793760  
408.500000	0.700773  
409.000000	0.659092  
409.500000	0.660164  
410.000000	0.678932  
410.500000	0.657117  
411.000000	0.659636  
411.500000	0.635849  
412.000000	0.623767  
412.500000	0.580459  
413.000000	0.502856  
413.500000	0.468821  
414.000000	0.477467  
414.500000	0.479724  
415.000000	0.448343  
415.500000	0.422139  
416.000000	0.398880  
416.500000	0.398786  
417.000000	0.391352  
417.500000	0.356858  
418.000000	0.365325  
418.500000	0.440392  
419.000000	0.505593  
419.500000	0.550981  
420.000000	0.589608  
420.500000	0.625390  
421.000000	0.641791  
421.500000	0.634532  
422.000000	0.598629  
422.500000	0.558359  
423.000000	0.524516  
423.500000	0.463453  
424.000000	0.395988  
424.500000	0.337250  
425.000000	0.292944  
425.500000	0.238846  
426.000000	0.198867  
426.500000	0.189540  
427.000000	0.207722  
427.500000	0.251736  
428.000000	0.292551  
428.500000	0.341673  
429.000000	0.394093  
429.500000	0.430771  
430.000000	0.440849  
430.500000	0.422789  
431.000000	0.401740  
431.500000	0.384031  
432.000000	0.355828  
432.500000	0.334843  
433.000000	0.343325  
433.500000	0.364798  
434.000000	0.383119  
434.500000	0.434140  
435.000000	0.471869  
435.500000	0.501768  
436.000000	0.530264  
436.500000	0.533298  
437.000000	0.518889  
437.500000	0.489132  
438.000000	0.444340  
438.500000	0.375323  
439.000000	0.344114  
439.500000	0.313640  
440.000000	0.295691  
440.500000	0.303213  
441.000000	0.308395  
441.500000	0.319021  
442.000000	0.334681  
442.500000	0.341195  
443.000000	0.322008  
443.500000	0.325837  
444.000000	0.335434  
444.500000	0.356485  

