PE FL                   SPECTRUM    ASCII       PEDS        1.60        
  -1
PM6370~1
23/10/12
11:19:55.00
23/10/12
11:19:55.00


444.500000
1









LS55
25.00
5.00
5.00
SCAN
1
20
100
500
0
500
0
2
0
1
7
ON
900 316 
1 0 0
#HDR
-1
-1
#GR
NM

0.00002384185791015625
0.0
250.000000
0.500000
390
8
6.035521
-4.262000
#DATA
250.000000	-4.262000 
250.500000	-1.736528 
251.000000	0.557445  
251.500000	2.097927  
252.000000	2.714190  
252.500000	2.132994  
253.000000	1.086105  
253.500000	-0.135551 
254.000000	-1.158475 
254.500000	-1.798381 
255.000000	-2.354824 
255.500000	-2.607905 
256.000000	-2.438697 
256.500000	-1.875333 
257.000000	-1.884269 
257.500000	-2.117865 
258.000000	-2.176522 
258.500000	-2.142827 
259.000000	-1.636175 
259.500000	-1.161876 
260.000000	-0.839900 
260.500000	-0.530057 
261.000000	-0.014420 
261.500000	0.129161  
262.000000	0.002254  
262.500000	-0.000246 
263.000000	0.041475  
263.500000	0.292809  
264.000000	0.596066  
264.500000	0.985942  
265.000000	1.191309  
265.500000	1.632063  
266.000000	2.090270  
266.500000	2.007942  
267.000000	2.118053  
267.500000	2.515529  
268.000000	2.962073  
268.500000	3.068639  
269.000000	3.081652  
269.500000	2.491110  
270.000000	1.771987  
270.500000	1.089544  
271.000000	-0.343328 
271.500000	-1.778532 
272.000000	-2.763180 
272.500000	-3.138630 
273.000000	-3.378302 
273.500000	-3.161659 
274.000000	-2.925930 
274.500000	-2.179319 
275.000000	-0.977572 
275.500000	-0.291562 
276.000000	0.026823  
276.500000	-0.288470 
277.000000	-0.715663 
277.500000	-1.241655 
278.000000	-1.661413 
278.500000	-2.165705 
279.000000	-2.238603 
279.500000	-1.702703 
280.000000	-0.719459 
280.500000	0.617445  
281.000000	1.502687  
281.500000	1.848213  
282.000000	1.604369  
282.500000	1.231135  
283.000000	0.805972  
283.500000	0.344219  
284.000000	0.172414  
284.500000	0.323486  
285.000000	1.265660  
285.500000	2.501841  
286.000000	3.457270  
286.500000	3.988862  
287.000000	4.232683  
287.500000	4.457406  
288.000000	4.156073  
288.500000	3.681285  
289.000000	3.146206  
289.500000	2.832296  
290.000000	3.077371  
290.500000	3.607975  
291.000000	4.268635  
291.500000	4.963566  
292.000000	5.825831  
292.500000	6.035521  
293.000000	5.773444  
293.500000	5.375550  
294.000000	4.628866  
294.500000	4.151491  
295.000000	3.716818  
295.500000	3.652720  
296.000000	3.842938  
296.500000	4.346144  
297.000000	4.357428  
297.500000	3.735601  
298.000000	3.085325  
298.500000	2.123343  
299.000000	1.503744  
299.500000	1.177963  
300.000000	1.204610  
300.500000	1.632364  
301.000000	2.392317  
301.500000	3.079470  
302.000000	3.306787  
302.500000	3.314884  
303.000000	2.819589  
303.500000	2.138971  
304.000000	1.392059  
304.500000	0.813152  
305.000000	0.552842  
305.500000	0.602954  
306.000000	1.019480  
306.500000	1.654042  
307.000000	2.517178  
307.500000	2.997915  
308.000000	3.236050  
308.500000	3.013570  
309.000000	2.321528  
309.500000	1.479506  
310.000000	0.538371  
310.500000	-0.043068 
311.000000	-0.262669 
311.500000	0.048396  
312.000000	0.455890  
312.500000	0.956417  
313.000000	1.338695  
313.500000	1.628979  
314.000000	1.879839  
314.500000	2.125587  
315.000000	2.389538  
315.500000	2.766274  
316.000000	3.220405  
316.500000	3.786552  
317.000000	4.081725  
317.500000	4.040872  
318.000000	3.761877  
318.500000	3.502793  
319.000000	3.341889  
319.500000	3.084867  
320.000000	2.865167  
320.500000	2.461893  
321.000000	2.438364  
321.500000	2.373268  
322.000000	2.204856  
322.500000	1.896612  
323.000000	1.649960  
323.500000	1.561620  
324.000000	1.396023  
324.500000	1.100119  
325.000000	0.468272  
325.500000	-0.141481 
326.000000	-0.660617 
326.500000	-0.960640 
327.000000	-1.107989 
327.500000	-0.987429 
328.000000	-0.643815 
328.500000	0.059477  
329.000000	0.754042  
329.500000	1.357011  
330.000000	1.640787  
330.500000	1.596322  
331.000000	1.376166  
331.500000	0.964066  
332.000000	0.438515  
332.500000	-0.054054 
333.000000	-0.294909 
333.500000	-0.445218 
334.000000	-0.354782 
334.500000	-0.170946 
335.000000	0.092105  
335.500000	0.378553  
336.000000	0.445215  
336.500000	0.331614  
337.000000	0.321594  
337.500000	0.315792  
338.000000	0.314044  
338.500000	0.463100  
339.000000	0.706121  
339.500000	0.911652  
340.000000	1.182228  
340.500000	1.251607  
341.000000	1.101256  
341.500000	0.975677  
342.000000	0.774736  
342.500000	0.619992  
343.000000	0.466672  
343.500000	0.380205  
344.000000	0.246473  
344.500000	0.200702  
345.000000	0.130747  
345.500000	0.008452  
346.000000	-0.105034 
346.500000	-0.139362 
347.000000	-0.076599 
347.500000	0.039312  
348.000000	0.204575  
348.500000	0.268818  
349.000000	0.273151  
349.500000	0.291290  
350.000000	0.299190  
350.500000	0.267868  
351.000000	0.276702  
351.500000	0.370999  
352.000000	0.550931  
352.500000	0.775405  
353.000000	0.915969  
353.500000	0.936284  
354.000000	0.891506  
354.500000	0.823004  
355.000000	0.719157  
355.500000	0.542449  
356.000000	0.323026  
356.500000	0.199386  
357.000000	0.177920  
357.500000	0.191659  
358.000000	0.160194  
358.500000	0.107650  
359.000000	0.105094  
359.500000	0.134760  
360.000000	0.151018  
360.500000	0.086260  
361.000000	0.035635  
361.500000	0.045575  
362.000000	0.188978  
362.500000	0.322674  
363.000000	0.442540  
363.500000	0.617403  
364.000000	0.723449  
364.500000	0.763223  
365.000000	0.788263  
365.500000	0.801953  
366.000000	0.775953  
366.500000	0.853861  
367.000000	0.892785  
367.500000	0.903926  
368.000000	0.992037  
368.500000	1.013233  
369.000000	0.964107  
369.500000	0.894141  
370.000000	0.815277  
370.500000	0.713658  
371.000000	0.639519  
371.500000	0.584407  
372.000000	0.502855  
372.500000	0.486419  
373.000000	0.559810  
373.500000	0.689452  
374.000000	0.844327  
374.500000	1.027557  
375.000000	1.194887  
375.500000	1.264203  
376.000000	1.300679  
376.500000	1.260776  
377.000000	1.107032  
377.500000	0.887675  
378.000000	0.734069  
378.500000	0.616716  
379.000000	0.576273  
379.500000	0.623330  
380.000000	0.689415  
380.500000	0.784986  
381.000000	0.854711  
381.500000	0.843919  
382.000000	0.778203  
382.500000	0.645603  
383.000000	0.457216  
383.500000	0.299483  
384.000000	0.260179  
384.500000	0.322934  
385.000000	0.473278  
385.500000	0.627810  
386.000000	0.723221  
386.500000	0.861037  
387.000000	0.915807  
387.500000	0.842400  
388.000000	0.703550  
388.500000	0.528940  
389.000000	0.426848  
389.500000	0.474597  
390.000000	0.523989  
390.500000	0.556825  
391.000000	0.666956  
391.500000	0.771159  
392.000000	0.845981  
392.500000	0.852673  
393.000000	0.766874  
393.500000	0.630945  
394.000000	0.551705  
394.500000	0.455619  
395.000000	0.368817  
395.500000	0.339254  
396.000000	0.341769  
396.500000	0.432609  
397.000000	0.556594  
397.500000	0.697177  
398.000000	0.815665  
398.500000	0.970041  
399.000000	1.057936  
399.500000	1.101236  
400.000000	1.163549  
400.500000	1.180841  
401.000000	1.203469  
401.500000	1.150657  
402.000000	1.091228  
402.500000	1.014336  
403.000000	0.951914  
403.500000	0.840844  
404.000000	0.700563  
404.500000	0.618455  
405.000000	0.588707  
405.500000	0.596058  
406.000000	0.584494  
406.500000	0.570699  
407.000000	0.572946  
407.500000	0.603437  
408.000000	0.572102  
408.500000	0.552865  
409.000000	0.557576  
409.500000	0.669602  
410.000000	0.811164  
410.500000	0.945213  
411.000000	1.014391  
411.500000	1.029761  
412.000000	1.028381  
412.500000	0.908268  
413.000000	0.749101  
413.500000	0.526834  
414.000000	0.411864  
414.500000	0.388924  
415.000000	0.452598  
415.500000	0.553232  
416.000000	0.671086  
416.500000	0.830402  
417.000000	0.940969  
417.500000	1.011013  
418.000000	0.994086  
418.500000	0.970435  
419.000000	0.963479  
419.500000	0.982476  
420.000000	0.994301  
420.500000	0.983983  
421.000000	0.975687  
421.500000	0.944119  
422.000000	0.908059  
422.500000	0.840551  
423.000000	0.764195  
423.500000	0.704962  
424.000000	0.684979  
424.500000	0.696889  
425.000000	0.730100  
425.500000	0.763606  
426.000000	0.767611  
426.500000	0.747689  
427.000000	0.697296  
427.500000	0.631070  
428.000000	0.546984  
428.500000	0.484198  
429.000000	0.471832  
429.500000	0.499766  
430.000000	0.561950  
430.500000	0.646377  
431.000000	0.735699  
431.500000	0.797428  
432.000000	0.828465  
432.500000	0.838070  
433.000000	0.809715  
433.500000	0.767191  
434.000000	0.718568  
434.500000	0.650816  
435.000000	0.605842  
435.500000	0.577068  
436.000000	0.551968  
436.500000	0.533334  
437.000000	0.547474  
437.500000	0.585809  
438.000000	0.636587  
438.500000	0.696033  
439.000000	0.720609  
439.500000	0.748034  
440.000000	0.769961  
440.500000	0.757167  
441.000000	0.711610  
441.500000	0.667430  
442.000000	0.628610  
442.500000	0.605673  
443.000000	0.600119  
443.500000	0.596872  
444.000000	0.620579  
444.500000	0.654955  

