PE FL                   SPECTRUM    ASCII       PEDS        1.60        
  -1
PM8370~1
23/10/12
11:21:16.00
23/10/12
11:21:16.00


444.500000
1









LS55
35.00
5.00
5.00
SCAN
1
20
100
500
0
500
0
2
0
1
7
ON
900 316 
1 0 0
#HDR
-1
-1
#GR
NM

0.00002384185791015625
0.0
250.000000
0.500000
390
8
4.364854
-3.541058
#DATA
250.000000	-0.693000 
250.500000	-1.535032 
251.000000	-2.239587 
251.500000	-1.830983 
252.000000	-0.537304 
252.500000	1.275551  
253.000000	3.115188  
253.500000	4.364854  
254.000000	4.235701  
254.500000	3.623087  
255.000000	1.938403  
255.500000	-0.175459 
256.000000	-1.961904 
256.500000	-3.094190 
257.000000	-3.541058 
257.500000	-3.093987 
258.000000	-2.133118 
258.500000	-1.405432 
259.000000	-0.585494 
259.500000	-0.539703 
260.000000	-0.934199 
260.500000	-1.501033 
261.000000	-2.007831 
261.500000	-2.412383 
262.000000	-2.431086 
262.500000	-2.137050 
263.000000	-1.372863 
263.500000	-0.403358 
264.000000	0.320758  
264.500000	0.993955  
265.000000	1.401917  
265.500000	1.555237  
266.000000	1.259443  
266.500000	0.785667  
267.000000	-0.025055 
267.500000	-0.631852 
268.000000	-1.355309 
268.500000	-1.982233 
269.000000	-2.288663 
269.500000	-2.382580 
270.000000	-2.392946 
270.500000	-2.402650 
271.000000	-2.502474 
271.500000	-2.788248 
272.000000	-2.832678 
272.500000	-2.950494 
273.000000	-3.013935 
273.500000	-2.951692 
274.000000	-2.851473 
274.500000	-2.584333 
275.000000	-2.288464 
275.500000	-2.274827 
276.000000	-2.511310 
276.500000	-2.635025 
277.000000	-2.796360 
277.500000	-2.629046 
278.000000	-2.343825 
278.500000	-1.944476 
279.000000	-1.168115 
279.500000	-0.130105 
280.000000	0.474129  
280.500000	0.689142  
281.000000	0.751795  
281.500000	0.504219  
282.000000	0.422735  
282.500000	0.346022  
283.000000	0.110064  
283.500000	0.139108  
284.000000	0.374888  
284.500000	0.257387  
285.000000	0.102399  
285.500000	-0.136047 
286.000000	-0.824797 
286.500000	-1.458926 
287.000000	-2.124182 
287.500000	-2.747129 
288.000000	-3.113549 
288.500000	-3.052857 
289.000000	-2.918702 
289.500000	-2.418548 
290.000000	-1.569933 
290.500000	-0.945555 
291.000000	-0.302026 
291.500000	0.300647  
292.000000	0.833203  
292.500000	1.214607  
293.000000	1.523082  
293.500000	1.644901  
294.000000	1.493386  
294.500000	1.647993  
295.000000	1.681430  
295.500000	1.535584  
296.000000	1.225744  
296.500000	0.894619  
297.000000	0.725942  
297.500000	0.693185  
298.000000	0.826505  
298.500000	0.683026  
299.000000	0.872753  
299.500000	1.189162  
300.000000	1.193464  
300.500000	0.930563  
301.000000	0.388511  
301.500000	-0.304646 
302.000000	-0.975346 
302.500000	-1.536455 
303.000000	-2.175561 
303.500000	-2.467346 
304.000000	-2.035917 
304.500000	-1.409432 
305.000000	-0.381101 
305.500000	0.717614  
306.000000	1.541989  
306.500000	2.166590  
307.000000	2.435468  
307.500000	2.318122  
308.000000	1.953981  
308.500000	1.578351  
309.000000	1.048297  
309.500000	0.864736  
310.000000	1.048031  
310.500000	1.388419  
311.000000	1.998516  
311.500000	2.625696  
312.000000	3.121437  
312.500000	3.384407  
313.000000	3.463731  
313.500000	3.215789  
314.000000	2.804281  
314.500000	2.180763  
315.000000	1.474419  
315.500000	0.912284  
316.000000	0.500371  
316.500000	0.315795  
317.000000	0.312779  
317.500000	0.583178  
318.000000	1.205190  
318.500000	1.869792  
319.000000	2.379670  
319.500000	2.743194  
320.000000	3.195938  
320.500000	3.526245  
321.000000	3.821064  
321.500000	3.736195  
322.000000	3.722364  
322.500000	3.671358  
323.000000	3.607795  
323.500000	3.471199  
324.000000	3.196650  
324.500000	3.185179  
325.000000	3.172906  
325.500000	3.290398  
326.000000	3.040637  
326.500000	2.785234  
327.000000	2.476879  
327.500000	2.177466  
328.000000	1.868576  
328.500000	1.276334  
329.000000	0.862850  
329.500000	0.668560  
330.000000	0.744400  
330.500000	0.832993  
331.000000	0.979425  
331.500000	1.140820  
332.000000	1.358651  
332.500000	1.793077  
333.000000	2.071765  
333.500000	2.194949  
334.000000	2.411828  
334.500000	2.612074  
335.000000	2.832607  
335.500000	2.891074  
336.000000	2.966806  
336.500000	2.946150  
337.000000	3.065478  
337.500000	3.289992  
338.000000	3.287099  
338.500000	3.379814  
339.000000	3.253132  
339.500000	2.952843  
340.000000	2.512893  
340.500000	2.160893  
341.000000	1.837280  
341.500000	1.533126  
342.000000	1.503891  
342.500000	1.550049  
343.000000	1.861542  
343.500000	2.260998  
344.000000	2.575815  
344.500000	2.633107  
345.000000	2.656181  
345.500000	2.605749  
346.000000	2.382678  
346.500000	2.133966  
347.000000	1.785925  
347.500000	1.487963  
348.000000	1.218510  
348.500000	1.058589  
349.000000	0.827779  
349.500000	0.735836  
350.000000	0.633426  
350.500000	0.617043  
351.000000	0.650874  
351.500000	0.681389  
352.000000	0.682662  
352.500000	0.668529  
353.000000	0.723817  
353.500000	0.631392  
354.000000	0.595643  
354.500000	0.434790  
355.000000	0.369866  
355.500000	0.361191  
356.000000	0.315930  
356.500000	0.254344  
357.000000	0.139502  
357.500000	0.092141  
358.000000	0.065972  
358.500000	0.121526  
359.000000	0.160442  
359.500000	0.359025  
360.000000	0.745537  
360.500000	1.119492  
361.000000	1.394671  
361.500000	1.558109  
362.000000	1.625310  
362.500000	1.594040  
363.000000	1.496671  
363.500000	1.304203  
364.000000	1.077425  
364.500000	0.954441  
365.000000	0.914032  
365.500000	0.944676  
366.000000	0.947826  
366.500000	0.913638  
367.000000	0.818148  
367.500000	0.767262  
368.000000	0.716260  
368.500000	0.613390  
369.000000	0.530215  
369.500000	0.456308  
370.000000	0.417150  
370.500000	0.345073  
371.000000	0.230103  
371.500000	0.062113  
372.000000	-0.086323 
372.500000	-0.140893 
373.000000	-0.154327 
373.500000	-0.088218 
374.000000	0.001768  
374.500000	0.202414  
375.000000	0.391151  
375.500000	0.519127  
376.000000	0.658154  
376.500000	0.732774  
377.000000	0.785598  
377.500000	0.748105  
378.000000	0.706762  
378.500000	0.598436  
379.000000	0.481917  
379.500000	0.453772  
380.000000	0.368701  
380.500000	0.378860  
381.000000	0.392325  
381.500000	0.455011  
382.000000	0.511050  
382.500000	0.557357  
383.000000	0.596148  
383.500000	0.590603  
384.000000	0.644069  
384.500000	0.625773  
385.000000	0.666661  
385.500000	0.734758  
386.000000	0.828161  
386.500000	0.883240  
387.000000	0.820233  
387.500000	0.753313  
388.000000	0.656181  
388.500000	0.550652  
389.000000	0.405816  
389.500000	0.339382  
390.000000	0.346058  
390.500000	0.423232  
391.000000	0.580402  
391.500000	0.639534  
392.000000	0.631113  
392.500000	0.663316  
393.000000	0.621520  
393.500000	0.512539  
394.000000	0.380651  
394.500000	0.271193  
395.000000	0.165541  
395.500000	0.192739  
396.000000	0.256433  
396.500000	0.318336  
397.000000	0.448385  
397.500000	0.544403  
398.000000	0.638767  
398.500000	0.740574  
399.000000	0.868627  
399.500000	0.905229  
400.000000	0.912299  
400.500000	0.874926  
401.000000	0.805808  
401.500000	0.768438  
402.000000	0.684090  
402.500000	0.597540  
403.000000	0.540469  
403.500000	0.568686  
404.000000	0.611363  
404.500000	0.665924  
405.000000	0.654889  
405.500000	0.644624  
406.000000	0.672772  
406.500000	0.667483  
407.000000	0.662360  
407.500000	0.657923  
408.000000	0.678218  
408.500000	0.725562  
409.000000	0.795321  
409.500000	0.798336  
410.000000	0.766534  
410.500000	0.744603  
411.000000	0.679336  
411.500000	0.625201  
412.000000	0.619308  
412.500000	0.606018  
413.000000	0.601104  
413.500000	0.613994  
414.000000	0.608178  
414.500000	0.589751  
415.000000	0.614126  
415.500000	0.599217  
416.000000	0.555471  
416.500000	0.537120  
417.000000	0.502397  
417.500000	0.456277  
418.000000	0.392800  
418.500000	0.301665  
419.000000	0.197588  
419.500000	0.152458  
420.000000	0.109647  
420.500000	0.057853  
421.000000	0.053193  
421.500000	0.096303  
422.000000	0.197221  
422.500000	0.307729  
423.000000	0.403672  
423.500000	0.489389  
424.000000	0.603886  
424.500000	0.696238  
425.000000	0.739165  
425.500000	0.735708  
426.000000	0.718580  
426.500000	0.694572  
427.000000	0.660243  
427.500000	0.591266  
428.000000	0.523913  
428.500000	0.488557  
429.000000	0.468171  
429.500000	0.454363  
430.000000	0.474976  
430.500000	0.523263  
431.000000	0.576218  
431.500000	0.634939  
432.000000	0.660876  
432.500000	0.672935  
433.000000	0.658486  
433.500000	0.607462  
434.000000	0.529361  
434.500000	0.481889  
435.000000	0.472900  
435.500000	0.486349  
436.000000	0.516955  
436.500000	0.547538  
437.000000	0.595354  
437.500000	0.623018  
438.000000	0.623187  
438.500000	0.593298  
439.000000	0.558131  
439.500000	0.522599  
440.000000	0.493956  
440.500000	0.463352  
441.000000	0.428775  
441.500000	0.415168  
442.000000	0.393954  
442.500000	0.370793  
443.000000	0.368578  
443.500000	0.387532  
444.000000	0.407853  
444.500000	0.428417  

