PE FL                   SPECTRUM    ASCII       PEDS        1.60        
  -1
PM2073~1
23/10/12
12:03:52.00
23/10/12
12:03:52.00


444.500000
1









LS55
40.00
5.00
5.00
SCAN
1
20
100
500
0
500
0
2
0
1
7
ON
500 450 
1 0 0
#HDR
-1
-1
#GR
NM

0.00002384185791015625
0.0
250.000000
0.500000
390
8
13.483846
-3.889000
#DATA
250.000000	-3.889000 
250.500000	-2.766395 
251.000000	-2.020286 
251.500000	-1.601979 
252.000000	-1.696223 
252.500000	-2.097115 
253.000000	-2.529251 
253.500000	-2.619455 
254.000000	-2.649552 
254.500000	-2.561604 
255.000000	-2.219225 
255.500000	-2.088452 
256.000000	-2.273536 
256.500000	-2.696928 
257.000000	-3.098397 
257.500000	-3.539027 
258.000000	-3.732148 
258.500000	-3.744940 
259.000000	-3.602131 
259.500000	-3.074772 
260.000000	-2.390378 
260.500000	-2.006924 
261.000000	-1.760624 
261.500000	-1.531219 
262.000000	-1.736043 
262.500000	-2.141596 
263.000000	-2.537394 
263.500000	-3.004231 
264.000000	-3.430942 
264.500000	-3.633135 
265.000000	-3.678345 
265.500000	-3.751530 
266.000000	-3.576436 
266.500000	-3.604424 
267.000000	-3.573267 
267.500000	-3.399262 
268.000000	-3.030260 
268.500000	-2.546291 
269.000000	-1.911821 
269.500000	-1.168410 
270.000000	-0.856272 
270.500000	-0.837761 
271.000000	-1.264352 
271.500000	-1.564625 
272.000000	-1.793357 
272.500000	-1.828671 
273.000000	-1.551342 
273.500000	-0.829018 
274.000000	0.308442  
274.500000	0.994014  
275.000000	1.165608  
275.500000	0.653413  
276.000000	0.210173  
276.500000	-0.409706 
277.000000	-1.277073 
277.500000	-1.768402 
278.000000	-1.599701 
278.500000	-0.638962 
279.000000	0.450538  
279.500000	1.517345  
280.000000	2.251927  
280.500000	2.845488  
281.000000	3.053354  
281.500000	2.352068  
282.000000	1.131724  
282.500000	-0.013746 
283.000000	-0.782978 
283.500000	-1.496825 
284.000000	-1.841829 
284.500000	-1.938519 
285.000000	-1.774786 
285.500000	-1.332233 
286.000000	-1.260637 
286.500000	-1.506553 
287.000000	-1.678232 
287.500000	-1.814404 
288.000000	-2.010247 
288.500000	-1.845477 
289.000000	-1.471478 
289.500000	-1.212748 
290.000000	-0.928240 
290.500000	-0.707006 
291.000000	-0.531157 
291.500000	-0.160179 
292.000000	0.529967  
292.500000	1.337466  
293.000000	2.519505  
293.500000	3.905856  
294.000000	4.962616  
294.500000	5.428185  
295.000000	5.156048  
295.500000	4.384925  
296.000000	3.198149  
296.500000	1.919986  
297.000000	0.425885  
297.500000	-0.586503 
298.000000	-0.934172 
298.500000	-0.613098 
299.000000	0.080312  
299.500000	1.083753  
300.000000	2.208229  
300.500000	3.320869  
301.000000	4.553799  
301.500000	5.143411  
302.000000	5.533261  
302.500000	5.632065  
303.000000	5.934135  
303.500000	6.396782  
304.000000	6.929836  
304.500000	7.439018  
305.000000	8.034305  
305.500000	9.119623  
306.000000	9.653147  
306.500000	9.936773  
307.000000	9.782253  
307.500000	9.569095  
308.000000	9.584482  
308.500000	9.597824  
309.000000	9.432732  
309.500000	9.250899  
310.000000	9.718733  
310.500000	10.159752 
311.000000	10.664100 
311.500000	10.944137 
312.000000	11.233091 
312.500000	11.835453 
313.000000	12.482020 
313.500000	12.952133 
314.000000	13.068506 
314.500000	13.215898 
315.000000	13.158496 
315.500000	12.996361 
316.000000	12.698435 
316.500000	12.445238 
317.000000	12.311373 
317.500000	12.377609 
318.000000	12.497995 
318.500000	12.808753 
319.000000	13.159001 
319.500000	13.326299 
320.000000	13.483846 
320.500000	13.481000 
321.000000	13.458540 
321.500000	13.139510 
322.000000	12.533556 
322.500000	11.836977 
323.000000	11.541412 
323.500000	11.518407 
324.000000	11.335645 
324.500000	11.229334 
325.000000	11.182877 
325.500000	11.327347 
326.000000	11.267036 
326.500000	10.819681 
327.000000	10.079301 
327.500000	9.385379  
328.000000	8.784622  
328.500000	7.882894  
329.000000	7.004882  
329.500000	6.241095  
330.000000	5.846135  
330.500000	5.657749  
331.000000	5.504589  
331.500000	5.544419  
332.000000	5.730519  
332.500000	6.050608  
333.000000	6.200045  
333.500000	6.188740  
334.000000	5.913253  
334.500000	5.632245  
335.000000	5.299719  
335.500000	4.980394  
336.000000	4.885812  
336.500000	4.791622  
337.000000	4.725528  
337.500000	4.633429  
338.000000	4.467048  
338.500000	4.175146  
339.000000	3.954996  
339.500000	3.674151  
340.000000	3.451315  
340.500000	3.401095  
341.000000	3.436845  
341.500000	3.490111  
342.000000	3.588290  
342.500000	3.632021  
343.000000	3.587598  
343.500000	3.764592  
344.000000	3.961002  
344.500000	4.135608  
345.000000	4.340910  
345.500000	4.556065  
346.000000	4.677791  
346.500000	4.798241  
347.000000	4.767512  
347.500000	4.612756  
348.000000	4.630346  
348.500000	4.673702  
349.000000	4.681636  
349.500000	4.756565  
350.000000	4.888703  
350.500000	5.091501  
351.000000	5.332962  
351.500000	5.429272  
352.000000	5.472196  
352.500000	5.430514  
353.000000	5.313622  
353.500000	5.079876  
354.000000	4.824765  
354.500000	4.582390  
355.000000	4.490825  
355.500000	4.463963  
356.000000	4.387790  
356.500000	4.335787  
357.000000	4.272980  
357.500000	4.185828  
358.000000	4.086614  
358.500000	3.936302  
359.000000	3.779882  
359.500000	3.769824  
360.000000	3.913831  
360.500000	4.131508  
361.000000	4.291106  
361.500000	4.455186  
362.000000	4.501145  
362.500000	4.463658  
363.000000	4.307286  
363.500000	4.046510  
364.000000	3.734201  
364.500000	3.581831  
365.000000	3.573657  
365.500000	3.451580  
366.000000	3.480883  
366.500000	3.586209  
367.000000	3.848129  
367.500000	4.181363  
368.000000	4.479241  
368.500000	4.670304  
369.000000	4.912080  
369.500000	5.224012  
370.000000	5.266976  
370.500000	5.208673  
371.000000	5.010258  
371.500000	4.885159  
372.000000	4.733498  
372.500000	4.602437  
373.000000	4.457005  
373.500000	4.398213  
374.000000	4.589012  
374.500000	4.700158  
375.000000	4.843697  
375.500000	4.890808  
376.000000	5.013528  
376.500000	5.057141  
377.000000	5.104948  
377.500000	5.065943  
378.000000	4.909091  
378.500000	4.838582  
379.000000	4.612827  
379.500000	4.434227  
380.000000	4.248363  
380.500000	4.165262  
381.000000	4.096165  
381.500000	4.141023  
382.000000	4.201930  
382.500000	4.270061  
383.000000	4.397144  
383.500000	4.464979  
384.000000	4.536959  
384.500000	4.580691  
385.000000	4.654223  
385.500000	4.711732  
386.000000	4.774273  
386.500000	4.800507  
387.000000	4.735755  
387.500000	4.629670  
388.000000	4.497355  
388.500000	4.328592  
389.000000	4.128332  
389.500000	3.983552  
390.000000	3.918775  
390.500000	3.940503  
391.000000	4.053264  
391.500000	4.140422  
392.000000	4.195046  
392.500000	4.248028  
393.000000	4.260498  
393.500000	4.221326  
394.000000	4.102048  
394.500000	3.946671  
395.000000	3.803392  
395.500000	3.742894  
396.000000	3.684471  
396.500000	3.627338  
397.000000	3.553695  
397.500000	3.549254  
398.000000	3.600426  
398.500000	3.570473  
399.000000	3.511477  
399.500000	3.445487  
400.000000	3.403109  
400.500000	3.358944  
401.000000	3.315656  
401.500000	3.205212  
402.000000	3.181330  
402.500000	3.211598  
403.000000	3.192391  
403.500000	3.176544  
404.000000	3.186855  
404.500000	3.207474  
405.000000	3.243431  
405.500000	3.271900  
406.000000	3.209108  
406.500000	3.157465  
407.000000	3.130915  
407.500000	3.056902  
408.000000	2.959934  
408.500000	2.857048  
409.000000	2.781591  
409.500000	2.761825  
410.000000	2.805350  
410.500000	2.862728  
411.000000	2.938744  
411.500000	3.048657  
412.000000	3.164962  
412.500000	3.232250  
413.000000	3.217599  
413.500000	3.143324  
414.000000	3.044672  
414.500000	2.935730  
415.000000	2.818471  
415.500000	2.686738  
416.000000	2.602693  
416.500000	2.591091  
417.000000	2.634246  
417.500000	2.690686  
418.000000	2.758796  
418.500000	2.839545  
419.000000	2.903824  
419.500000	2.905835  
420.000000	2.858586  
420.500000	2.763307  
421.000000	2.651078  
421.500000	2.523978  
422.000000	2.386334  
422.500000	2.242060  
423.000000	2.141858  
423.500000	2.098987  
424.000000	2.061809  
424.500000	2.046451  
425.000000	2.057979  
425.500000	2.080575  
426.000000	2.109936  
426.500000	2.130598  
427.000000	2.124983  
427.500000	2.107511  
428.000000	2.105785  
428.500000	2.080557  
429.000000	2.048051  
429.500000	2.021173  
430.000000	1.997440  
430.500000	1.978176  
431.000000	1.962739  
431.500000	1.950829  
432.000000	1.942870  
432.500000	1.943704  
433.000000	1.925824  
433.500000	1.903389  
434.000000	1.879467  
434.500000	1.839286  
435.000000	1.784443  
435.500000	1.712588  
436.000000	1.650052  
436.500000	1.616187  
437.000000	1.599129  
437.500000	1.578035  
438.000000	1.580282  
438.500000	1.601668  
439.000000	1.617286  
439.500000	1.617798  
440.000000	1.594065  
440.500000	1.568330  
441.000000	1.564714  
441.500000	1.585661  
442.000000	1.589729  
442.500000	1.602657  
443.000000	1.634679  
443.500000	1.665993  
444.000000	1.681820  
444.500000	1.659233  

