PE FL                   SPECTRUM    ASCII       PEDS        1.60        
  -1
PM2003~1
23/10/12
11:59:09.00
23/10/12
11:59:09.00


444.500000
1









LS55
5.00
5.00
5.00
SCAN
1
20
100
500
0
500
0
2
0
1
7
ON
500 450 
1 0 0
#HDR
-1
-1
#GR
NM

0.00002384185791015625
0.0
250.000000
0.500000
390
8
45.585761
-4.718120
#DATA
250.000000	-4.182999 
250.500000	-2.852161 
251.000000	-1.991787 
251.500000	-1.471338 
252.000000	-1.545416 
252.500000	-1.862724 
253.000000	-2.521485 
253.500000	-3.586764 
254.000000	-4.457663 
254.500000	-4.718120 
255.000000	-4.360665 
255.500000	-3.837037 
256.000000	-2.965639 
256.500000	-2.112843 
257.000000	-1.126930 
257.500000	-0.164255 
258.000000	-0.259418 
258.500000	-0.633885 
259.000000	-1.424511 
259.500000	-2.166883 
260.000000	-2.795882 
260.500000	-3.263615 
261.000000	-3.405869 
261.500000	-3.216824 
262.000000	-2.723025 
262.500000	-2.570094 
263.000000	-2.121775 
263.500000	-1.912330 
264.000000	-1.655257 
264.500000	-1.279280 
265.000000	-0.994286 
265.500000	-0.544210 
266.000000	-0.075928 
266.500000	-0.052979 
267.000000	-0.353018 
267.500000	-0.507558 
268.000000	-0.930987 
268.500000	-1.436068 
269.000000	-1.883791 
269.500000	-2.353966 
270.000000	-2.521944 
270.500000	-2.591533 
271.000000	-2.847375 
271.500000	-3.037780 
272.000000	-2.976089 
272.500000	-2.918510 
273.000000	-2.692938 
273.500000	-2.408177 
274.000000	-2.078325 
274.500000	-1.436063 
275.000000	-0.894177 
275.500000	-0.656999 
276.000000	-0.487469 
276.500000	-0.422034 
277.000000	-0.913028 
277.500000	-1.257602 
278.000000	-1.732426 
278.500000	-2.202932 
279.000000	-2.253241 
279.500000	-2.282895 
280.000000	-2.142805 
280.500000	-1.799705 
281.000000	-1.477485 
281.500000	-1.810830 
282.000000	-2.028870 
282.500000	-2.314470 
283.000000	-2.672870 
283.500000	-2.942523 
284.000000	-3.182866 
284.500000	-3.301687 
285.000000	-2.973503 
285.500000	-2.420542 
286.000000	-2.305405 
286.500000	-1.933015 
287.000000	-1.319261 
287.500000	-0.566582 
288.000000	0.198699  
288.500000	0.872132  
289.000000	1.146857  
289.500000	1.287585  
290.000000	0.971986  
290.500000	0.247809  
291.000000	-0.637529 
291.500000	-1.437341 
292.000000	-2.234164 
292.500000	-2.764944 
293.000000	-2.866217 
293.500000	-2.947842 
294.000000	-2.831839 
294.500000	-2.819256 
295.000000	-2.677046 
295.500000	-2.756962 
296.000000	-2.533986 
296.500000	-2.494478 
297.000000	-2.379072 
297.500000	-1.810634 
298.000000	-1.175172 
298.500000	-0.276649 
299.000000	0.492543  
299.500000	1.627019  
300.000000	2.341997  
300.500000	3.085628  
301.000000	3.289784  
301.500000	2.774568  
302.000000	2.127300  
302.500000	1.103303  
303.000000	0.050318  
303.500000	-1.016804 
304.000000	-1.317036 
304.500000	-1.675182 
305.000000	-1.535757 
305.500000	-0.917505 
306.000000	-0.299137 
306.500000	0.463393  
307.000000	0.924590  
307.500000	1.236297  
308.000000	1.276096  
308.500000	1.688059  
309.000000	1.866765  
309.500000	1.774527  
310.000000	1.720146  
310.500000	1.793484  
311.000000	1.809572  
311.500000	1.748517  
312.000000	1.528755  
312.500000	0.998951  
313.000000	0.681285  
313.500000	0.599046  
314.000000	0.358399  
314.500000	0.163287  
315.000000	0.205942  
315.500000	0.427435  
316.000000	0.962245  
316.500000	1.597773  
317.000000	2.293308  
317.500000	2.871091  
318.000000	3.670826  
318.500000	4.336329  
319.000000	5.038561  
319.500000	5.540043  
320.000000	5.779675  
320.500000	5.992384  
321.000000	6.093912  
321.500000	6.301107  
322.000000	6.247540  
322.500000	6.253547  
323.000000	6.285282  
323.500000	6.665840  
324.000000	6.948477  
324.500000	7.213498  
325.000000	7.416942  
325.500000	7.475571  
326.000000	7.568573  
326.500000	7.502642  
327.000000	7.538486  
327.500000	7.689610  
328.000000	8.029532  
328.500000	8.383306  
329.000000	8.870519  
329.500000	9.404120  
330.000000	9.970355  
330.500000	10.449894 
331.000000	10.651255 
331.500000	10.825775 
332.000000	11.136517 
332.500000	11.451351 
333.000000	11.601455 
333.500000	11.733190 
334.000000	11.988424 
334.500000	12.201648 
335.000000	12.402797 
335.500000	12.307476 
336.000000	12.145201 
336.500000	12.109373 
337.000000	12.272260 
337.500000	12.493907 
338.000000	12.640876 
338.500000	12.882188 
339.000000	13.013860 
339.500000	13.154488 
340.000000	13.238029 
340.500000	13.205885 
341.000000	12.999302 
341.500000	12.903599 
342.000000	12.986275 
342.500000	13.055996 
343.000000	13.139842 
343.500000	13.053630 
344.000000	12.960298 
344.500000	13.234965 
345.000000	13.751573 
345.500000	14.292016 
346.000000	14.879609 
346.500000	15.616721 
347.000000	16.426789 
347.500000	17.247498 
348.000000	17.815873 
348.500000	17.989642 
349.000000	18.162255 
349.500000	18.418626 
350.000000	18.784500 
350.500000	19.198899 
351.000000	19.723033 
351.500000	20.315319 
352.000000	21.085139 
352.500000	21.915918 
353.000000	22.604262 
353.500000	23.185592 
354.000000	23.577059 
354.500000	24.260567 
355.000000	25.097378 
355.500000	26.176720 
356.000000	27.388418 
356.500000	28.953978 
357.000000	30.795045 
357.500000	32.764222 
358.000000	34.699208 
358.500000	36.093452 
359.000000	37.399800 
359.500000	38.170048 
360.000000	38.683416 
360.500000	38.860204 
361.000000	39.080909 
361.500000	39.263039 
362.000000	39.383330 
362.500000	39.866419 
363.000000	40.323462 
363.500000	41.040141 
364.000000	41.577760 
364.500000	42.079464 
365.000000	42.218298 
365.500000	42.253566 
366.000000	41.851519 
366.500000	40.809518 
367.000000	39.742114 
367.500000	38.709425 
368.000000	37.860146 
368.500000	37.088091 
369.000000	36.426628 
369.500000	36.011088 
370.000000	35.911198 
370.500000	35.968882 
371.000000	35.747222 
371.500000	35.763309 
372.000000	36.018227 
372.500000	36.282118 
373.000000	36.648339 
373.500000	36.791485 
374.000000	37.024835 
374.500000	37.455717 
375.000000	38.143675 
375.500000	38.760290 
376.000000	39.652479 
376.500000	40.671939 
377.000000	41.555314 
377.500000	42.595039 
378.000000	43.324800 
378.500000	43.753209 
379.000000	43.718321 
379.500000	43.511707 
380.000000	42.952546 
380.500000	42.508169 
381.000000	42.149106 
381.500000	41.509749 
382.000000	40.797179 
382.500000	40.279090 
383.000000	39.892332 
383.500000	39.353145 
384.000000	38.785229 
384.500000	37.999699 
385.000000	37.219760 
385.500000	36.559841 
386.000000	35.880599 
386.500000	34.891359 
387.000000	33.888094 
387.500000	33.003832 
388.000000	32.099068 
388.500000	31.189575 
389.000000	30.002487 
389.500000	28.488595 
390.000000	26.788427 
390.500000	25.329182 
391.000000	23.687036 
391.500000	22.009421 
392.000000	20.446331 
392.500000	19.090445 
393.000000	18.040580 
393.500000	17.293665 
394.000000	16.750358 
394.500000	16.224140 
395.000000	16.026674 
395.500000	15.926141 
396.000000	15.887902 
396.500000	15.944160 
397.000000	15.951069 
397.500000	15.843878 
398.000000	15.597358 
398.500000	15.301940 
399.000000	14.867283 
399.500000	14.384464 
400.000000	13.757709 
400.500000	13.074348 
401.000000	12.547685 
401.500000	12.077363 
402.000000	11.730797 
402.500000	11.485950 
403.000000	11.337381 
403.500000	11.273206 
404.000000	11.237121 
404.500000	11.077794 
405.000000	10.751988 
405.500000	10.392460 
406.000000	9.873425  
406.500000	9.363206  
407.000000	8.815459  
407.500000	8.366534  
408.000000	8.019394  
408.500000	7.844931  
409.000000	7.761958  
409.500000	7.732628  
410.000000	7.886701  
410.500000	8.064840  
411.000000	8.324073  
411.500000	8.519055  
412.000000	8.732091  
412.500000	8.895077  
413.000000	9.051904  
413.500000	9.080752  
414.000000	8.957173  
414.500000	8.821829  
415.000000	8.763383  
415.500000	8.793490  
416.000000	8.949160  
416.500000	9.258331  
417.000000	9.641849  
417.500000	10.148232 
418.000000	10.667509 
418.500000	11.065178 
419.000000	11.304852 
419.500000	11.448715 
420.000000	11.539906 
420.500000	11.628550 
421.000000	11.712352 
421.500000	11.787373 
422.000000	11.980703 
422.500000	12.231825 
423.000000	12.565280 
423.500000	12.866776 
424.000000	13.133356 
424.500000	13.536153 
425.000000	14.058213 
425.500000	14.574535 
426.000000	15.027512 
426.500000	15.453310 
427.000000	15.787489 
427.500000	16.082697 
428.000000	16.264513 
428.500000	16.290156 
429.000000	16.487360 
429.500000	16.838708 
430.000000	17.357568 
430.500000	18.163047 
431.000000	19.240003 
431.500000	20.502876 
432.000000	21.973370 
432.500000	23.717460 
433.000000	25.542414 
433.500000	27.489293 
434.000000	29.429539 
434.500000	31.243626 
435.000000	32.884532 
435.500000	34.340806 
436.000000	35.509626 
436.500000	36.245047 
437.000000	36.768051 
437.500000	37.086412 
438.000000	37.332581 
438.500000	37.449737 
439.000000	37.501672 
439.500000	37.613909 
440.000000	37.965301 
440.500000	38.414359 
441.000000	38.915992 
441.500000	39.564956 
442.000000	40.231820 
442.500000	41.164658 
443.000000	42.303647 
443.500000	43.451941 
444.000000	44.502833 
444.500000	45.585761 

