PE FL                   SPECTRUM    ASCII       PEDS        1.60        
  -1
PM2063~1
23/10/12
12:03:11.00
23/10/12
12:03:11.00


444.500000
1









LS55
35.00
5.00
5.00
SCAN
1
20
100
500
0
500
0
2
0
1
7
ON
500 450 
1 0 0
#HDR
-1
-1
#GR
NM

0.00002384185791015625
0.0
250.000000
0.500000
390
8
13.498825
-5.000000
#DATA
250.000000	-5.000000 
250.500000	-3.107232 
251.000000	-1.827034 
251.500000	-1.111498 
252.000000	-0.575269 
252.500000	-0.105002 
253.000000	-0.278020 
253.500000	-1.156461 
254.000000	-2.214989 
254.500000	-2.996521 
255.000000	-3.342667 
255.500000	-3.663632 
256.000000	-3.720107 
256.500000	-3.502507 
257.000000	-2.987752 
257.500000	-2.455612 
258.000000	-2.243662 
258.500000	-2.018158 
259.000000	-1.947994 
259.500000	-1.854038 
260.000000	-1.948161 
260.500000	-1.881993 
261.000000	-1.739524 
261.500000	-1.468606 
262.000000	-1.274691 
262.500000	-1.253730 
263.000000	-0.976778 
263.500000	-0.662580 
264.000000	-0.184181 
264.500000	-0.000057 
265.000000	0.285318  
265.500000	0.403446  
266.000000	0.484901  
266.500000	0.285002  
267.000000	-0.624772 
267.500000	-1.671513 
268.000000	-2.737188 
268.500000	-3.307345 
269.000000	-3.640999 
269.500000	-3.464262 
270.000000	-3.182958 
270.500000	-2.467189 
271.000000	-1.440627 
271.500000	-0.783486 
272.000000	-0.495227 
272.500000	-0.907260 
273.000000	-1.412708 
273.500000	-2.130757 
274.000000	-2.688953 
274.500000	-3.359657 
275.000000	-3.828002 
275.500000	-4.137972 
276.000000	-4.253987 
276.500000	-4.118027 
277.000000	-3.859102 
277.500000	-3.277442 
278.000000	-2.776422 
278.500000	-2.124296 
279.000000	-1.671502 
279.500000	-1.031495 
280.000000	-0.713629 
280.500000	-0.900212 
281.000000	-1.206534 
281.500000	-1.333754 
282.000000	-1.295108 
282.500000	-1.459031 
283.000000	-1.723221 
283.500000	-1.951333 
284.000000	-1.762750 
284.500000	-1.597822 
285.000000	-1.604678 
285.500000	-1.457587 
286.000000	-0.997372 
286.500000	-0.229907 
287.000000	0.584020  
287.500000	1.372479  
288.000000	1.862239  
288.500000	2.154338  
289.000000	2.056262  
289.500000	1.564683  
290.000000	0.935750  
290.500000	0.421841  
291.000000	0.034058  
291.500000	-0.308311 
292.000000	-0.576688 
292.500000	-0.553015 
293.000000	-0.291065 
293.500000	-0.072105 
294.000000	0.143961  
294.500000	0.274217  
295.000000	0.372994  
295.500000	0.478902  
296.000000	0.479691  
296.500000	0.457713  
297.000000	0.722874  
297.500000	0.970789  
298.000000	1.362110  
298.500000	1.770303  
299.000000	2.117121  
299.500000	2.361684  
300.000000	2.376464  
300.500000	2.238758  
301.000000	1.743491  
301.500000	1.622504  
302.000000	1.542081  
302.500000	1.846314  
303.000000	2.398188  
303.500000	3.361201  
304.000000	4.637422  
304.500000	5.788127  
305.000000	6.639951  
305.500000	7.075375  
306.000000	7.482429  
306.500000	7.534381  
307.000000	7.573665  
307.500000	7.175438  
308.000000	6.695553  
308.500000	6.416765  
309.000000	6.245087  
309.500000	6.147979  
310.000000	6.201678  
310.500000	6.239755  
311.000000	6.419490  
311.500000	6.993855  
312.000000	7.722417  
312.500000	8.571419  
313.000000	9.613545  
313.500000	10.753780 
314.000000	11.804681 
314.500000	12.802606 
315.000000	13.159070 
315.500000	13.184143 
316.000000	12.981223 
316.500000	12.599205 
317.000000	12.226435 
317.500000	11.941553 
318.000000	11.678495 
318.500000	11.744434 
319.000000	12.168211 
319.500000	12.421479 
320.000000	12.860958 
320.500000	13.080197 
321.000000	13.236728 
321.500000	13.417098 
322.000000	13.498825 
322.500000	13.276618 
323.000000	13.212770 
323.500000	13.059291 
324.000000	12.498818 
324.500000	12.039247 
325.000000	11.570055 
325.500000	11.045000 
326.000000	10.704549 
326.500000	10.352030 
327.000000	9.999241  
327.500000	9.974508  
328.000000	10.099460 
328.500000	9.908174  
329.000000	9.760623  
329.500000	9.578415  
330.000000	9.284631  
330.500000	8.893289  
331.000000	8.161733  
331.500000	7.240330  
332.000000	6.440175  
332.500000	5.926652  
333.000000	5.451199  
333.500000	5.155979  
334.000000	5.180960  
334.500000	5.432483  
335.000000	5.851649  
335.500000	6.216614  
336.000000	6.478141  
336.500000	6.624863  
337.000000	6.873096  
337.500000	6.896713  
338.000000	6.705398  
338.500000	6.478377  
339.000000	6.145607  
339.500000	5.814798  
340.000000	5.459440  
340.500000	5.051751  
341.000000	4.617046  
341.500000	4.305729  
342.000000	3.977261  
342.500000	3.663835  
343.000000	3.571081  
343.500000	3.518856  
344.000000	3.461002  
344.500000	3.507393  
345.000000	3.583519  
345.500000	3.645668  
346.000000	3.821640  
346.500000	3.893226  
347.000000	3.895523  
347.500000	3.913693  
348.000000	3.871858  
348.500000	3.712372  
349.000000	3.491774  
349.500000	3.206816  
350.000000	2.940771  
350.500000	2.795938  
351.000000	2.695062  
351.500000	2.717593  
352.000000	2.791956  
352.500000	2.916934  
353.000000	2.981787  
353.500000	3.010093  
354.000000	2.876937  
354.500000	2.713745  
355.000000	2.604193  
355.500000	2.553262  
356.000000	2.668071  
356.500000	2.816624  
357.000000	2.924579  
357.500000	2.982771  
358.000000	2.987958  
358.500000	2.866106  
359.000000	2.750288  
359.500000	2.667057  
360.000000	2.573818  
360.500000	2.588803  
361.000000	2.710656  
361.500000	2.848022  
362.000000	2.932615  
362.500000	3.006702  
363.000000	3.132640  
363.500000	3.249745  
364.000000	3.385908  
364.500000	3.439792  
365.000000	3.551291  
365.500000	3.731049  
366.000000	3.856076  
366.500000	3.914966  
367.000000	3.810359  
367.500000	3.803985  
368.000000	3.793787  
368.500000	3.794731  
369.000000	3.712316  
369.500000	3.719658  
370.000000	3.735005  
370.500000	3.779845  
371.000000	3.915211  
371.500000	3.955815  
372.000000	4.027006  
372.500000	4.131379  
373.000000	4.165371  
373.500000	4.062265  
374.000000	4.006530  
374.500000	3.833154  
375.000000	3.711169  
375.500000	3.765846  
376.000000	3.809954  
376.500000	3.857075  
377.000000	4.030212  
377.500000	4.150544  
378.000000	4.167322  
378.500000	4.191330  
379.000000	4.026505  
379.500000	3.816697  
380.000000	3.650443  
380.500000	3.446731  
381.000000	3.225062  
381.500000	3.161379  
382.000000	3.176421  
382.500000	3.241816  
383.000000	3.390954  
383.500000	3.483104  
384.000000	3.565526  
384.500000	3.715704  
385.000000	3.809325  
385.500000	3.818457  
386.000000	3.832445  
386.500000	3.826772  
387.000000	3.790152  
387.500000	3.778442  
388.000000	3.742845  
388.500000	3.681893  
389.000000	3.631565  
389.500000	3.562580  
390.000000	3.479275  
390.500000	3.375591  
391.000000	3.322804  
391.500000	3.297659  
392.000000	3.343551  
392.500000	3.438195  
393.000000	3.577030  
393.500000	3.686032  
394.000000	3.777873  
394.500000	3.819923  
395.000000	3.744937  
395.500000	3.632695  
396.000000	3.466615  
396.500000	3.276806  
397.000000	3.124134  
397.500000	3.058688  
398.000000	3.043691  
398.500000	3.081701  
399.000000	3.184566  
399.500000	3.298953  
400.000000	3.374420  
400.500000	3.396896  
401.000000	3.329007  
401.500000	3.219106  
402.000000	3.158803  
402.500000	3.072927  
403.000000	2.996886  
403.500000	2.921691  
404.000000	2.913240  
404.500000	2.880645  
405.000000	2.840871  
405.500000	2.773271  
406.000000	2.663052  
406.500000	2.600528  
407.000000	2.568918  
407.500000	2.580433  
408.000000	2.580868  
408.500000	2.661082  
409.000000	2.740118  
409.500000	2.824139  
410.000000	2.896799  
410.500000	2.894544  
411.000000	2.893824  
411.500000	2.866913  
412.000000	2.811605  
412.500000	2.728494  
413.000000	2.645071  
413.500000	2.540552  
414.000000	2.453363  
414.500000	2.404711  
415.000000	2.375605  
415.500000	2.356788  
416.000000	2.371452  
416.500000	2.368591  
417.000000	2.366058  
417.500000	2.346112  
418.000000	2.291086  
418.500000	2.226852  
419.000000	2.177693  
419.500000	2.158172  
420.000000	2.161137  
420.500000	2.178574  
421.000000	2.197653  
421.500000	2.239588  
422.000000	2.258965  
422.500000	2.245044  
423.000000	2.204267  
423.500000	2.130632  
424.000000	2.077270  
424.500000	2.034353  
425.000000	1.992078  
425.500000	1.947568  
426.000000	1.919382  
426.500000	1.889010  
427.000000	1.869808  
427.500000	1.868688  
428.000000	1.861440  
428.500000	1.850094  
429.000000	1.841486  
429.500000	1.831438  
430.000000	1.803931  
430.500000	1.766990  
431.000000	1.726066  
431.500000	1.695573  
432.000000	1.693332  
432.500000	1.727880  
433.000000	1.762922  
433.500000	1.771421  
434.000000	1.755105  
434.500000	1.715750  
435.000000	1.637893  
435.500000	1.526906  
436.000000	1.405157  
436.500000	1.288181  
437.000000	1.238131  
437.500000	1.237155  
438.000000	1.264134  
438.500000	1.306570  
439.000000	1.383818  
439.500000	1.464043  
440.000000	1.523500  
440.500000	1.567759  
441.000000	1.577976  
441.500000	1.586193  
442.000000	1.587903  
442.500000	1.573777  
443.000000	1.541733  
443.500000	1.519890  
444.000000	1.506004  
444.500000	1.504544  

