PE FL                   SPECTRUM    ASCII       PEDS        1.60        
  -1
PM4AFE~1
23/10/10
10:39:31.00
23/10/10
10:39:31.00


444.500000
1









LS55
10.00
5.00
5.00
SCAN
1
20
100
100
0
500
0
2
0
1
7
ON
435 365 
1 0 0
#HDR
-1
-1
#GR
NM

0.00002384185791015625
0.0
300.000000
0.500000
290
8
3.330390
-0.200768
#DATA
300.000000	3.084000  
300.500000	2.631721  
301.000000	2.038037  
301.500000	1.873694  
302.000000	1.689467  
302.500000	1.627876  
303.000000	1.419390  
303.500000	1.315978  
304.000000	0.676277  
304.500000	0.414358  
305.000000	0.082211  
305.500000	-0.200768 
306.000000	-0.197966 
306.500000	0.061899  
307.000000	0.623666  
307.500000	1.105771  
308.000000	1.821917  
308.500000	2.009754  
309.000000	2.391763  
309.500000	2.420109  
310.000000	2.142406  
310.500000	1.925439  
311.000000	1.604043  
311.500000	1.424955  
312.000000	1.143339  
312.500000	0.827752  
313.000000	0.499505  
313.500000	0.567626  
314.000000	0.713102  
314.500000	1.024573  
315.000000	1.592774  
315.500000	2.162216  
316.000000	2.764189  
316.500000	3.185721  
317.000000	3.330390  
317.500000	3.148569  
318.000000	2.848363  
318.500000	2.356436  
319.000000	1.846652  
319.500000	1.503707  
320.000000	1.242029  
320.500000	1.135139  
321.000000	1.229868  
321.500000	1.516005  
322.000000	1.690959  
322.500000	2.016160  
323.000000	2.425881  
323.500000	2.729294  
324.000000	3.004281  
324.500000	3.222648  
325.000000	3.207443  
325.500000	3.017763  
326.000000	2.819223  
326.500000	2.335371  
327.000000	1.910075  
327.500000	1.692783  
328.000000	1.579090  
328.500000	1.604484  
329.000000	1.764258  
329.500000	1.835339  
330.000000	1.863448  
330.500000	1.958627  
331.000000	1.921660  
331.500000	1.883296  
332.000000	1.935994  
332.500000	2.054384  
333.000000	2.224836  
333.500000	2.407741  
334.000000	2.481722  
334.500000	2.437729  
335.000000	2.270482  
335.500000	2.048615  
336.000000	1.906509  
336.500000	1.757617  
337.000000	1.825661  
337.500000	2.076943  
338.000000	2.366651  
338.500000	2.690997  
339.000000	2.948058  
339.500000	2.872096  
340.000000	2.675838  
340.500000	2.510828  
341.000000	2.229421  
341.500000	2.040294  
342.000000	2.064271  
342.500000	2.064462  
343.000000	2.247239  
343.500000	2.536903  
344.000000	2.662301  
344.500000	2.682553  
345.000000	2.823054  
345.500000	2.788282  
346.000000	2.698791  
346.500000	2.788987  
347.000000	2.711174  
347.500000	2.616038  
348.000000	2.525358  
348.500000	2.341211  
349.000000	2.058298  
349.500000	1.854980  
350.000000	1.656595  
350.500000	1.497279  
351.000000	1.615350  
351.500000	1.754369  
352.000000	1.918699  
352.500000	2.107005  
353.000000	2.336609  
353.500000	2.368584  
354.000000	2.338157  
354.500000	2.169674  
355.000000	1.942855  
355.500000	1.786222  
356.000000	1.649169  
356.500000	1.521339  
357.000000	1.504636  
357.500000	1.662636  
358.000000	1.918239  
358.500000	2.274290  
359.000000	2.634259  
359.500000	2.862900  
360.000000	2.982527  
360.500000	3.006742  
361.000000	2.909284  
361.500000	2.791109  
362.000000	2.624750  
362.500000	2.360035  
363.000000	2.188428  
363.500000	2.127294  
364.000000	2.046773  
364.500000	1.939524  
365.000000	1.904148  
365.500000	1.927635  
366.000000	2.091302  
366.500000	2.233244  
367.000000	2.287360  
367.500000	2.323524  
368.000000	2.353693  
368.500000	2.327608  
369.000000	2.239532  
369.500000	2.142812  
370.000000	2.061063  
370.500000	2.084992  
371.000000	2.133296  
371.500000	2.164943  
372.000000	2.227297  
372.500000	2.249739  
373.000000	2.192995  
373.500000	2.078380  
374.000000	1.974283  
374.500000	1.907326  
375.000000	1.891696  
375.500000	1.879584  
376.000000	1.901120  
376.500000	1.988555  
377.000000	2.100327  
377.500000	2.181955  
378.000000	2.257631  
378.500000	2.323829  
379.000000	2.404008  
379.500000	2.432251  
380.000000	2.384671  
380.500000	2.329661  
381.000000	2.235266  
381.500000	2.171602  
382.000000	2.078079  
382.500000	1.966835  
383.000000	1.864606  
383.500000	1.847182  
384.000000	1.818696  
384.500000	1.772611  
385.000000	1.777710  
385.500000	1.749353  
386.000000	1.755179  
386.500000	1.752561  
387.000000	1.773692  
387.500000	1.815431  
388.000000	1.903905  
388.500000	2.017962  
389.000000	2.118226  
389.500000	2.270898  
390.000000	2.330634  
390.500000	2.333422  
391.000000	2.237906  
391.500000	2.118416  
392.000000	1.976976  
392.500000	1.859451  
393.000000	1.774110  
393.500000	1.728200  
394.000000	1.801438  
394.500000	1.912483  
395.000000	1.980220  
395.500000	2.016110  
396.000000	2.050485  
396.500000	2.036095  
397.000000	1.989892  
397.500000	1.963855  
398.000000	1.984826  
398.500000	2.053125  
399.000000	2.150309  
399.500000	2.218885  
400.000000	2.288986  
400.500000	2.343614  
401.000000	2.332973  
401.500000	2.243080  
402.000000	2.111380  
402.500000	2.019680  
403.000000	1.945480  
403.500000	1.886168  
404.000000	1.790077  
404.500000	1.752165  
405.000000	1.777238  
405.500000	1.821386  
406.000000	1.865926  
406.500000	1.883024  
407.000000	1.905562  
407.500000	1.922030  
408.000000	1.933425  
408.500000	1.893565  
409.000000	1.849994  
409.500000	1.820379  
410.000000	1.766044  
410.500000	1.739102  
411.000000	1.725849  
411.500000	1.735499  
412.000000	1.776219  
412.500000	1.843764  
413.000000	1.863351  
413.500000	1.881808  
414.000000	1.910279  
414.500000	1.900531  
415.000000	1.852795  
415.500000	1.781688  
416.000000	1.721871  
416.500000	1.726392  
417.000000	1.755487  
417.500000	1.792125  
418.000000	1.853871  
418.500000	1.938360  
419.000000	2.025741  
419.500000	2.065558  
420.000000	2.081165  
420.500000	2.059230  
421.000000	2.058814  
421.500000	2.032400  
422.000000	2.002662  
422.500000	1.960450  
423.000000	1.908983  
423.500000	1.860117  
424.000000	1.800199  
424.500000	1.786906  
425.000000	1.769549  
425.500000	1.792248  
426.000000	1.802943  
426.500000	1.824784  
427.000000	1.842022  
427.500000	1.832670  
428.000000	1.780115  
428.500000	1.694554  
429.000000	1.634657  
429.500000	1.557777  
430.000000	1.524562  
430.500000	1.518158  
431.000000	1.541164  
431.500000	1.587355  
432.000000	1.644351  
432.500000	1.666277  
433.000000	1.656603  
433.500000	1.633334  
434.000000	1.571900  
434.500000	1.502798  
435.000000	1.430998  
435.500000	1.364866  
436.000000	1.331234  
436.500000	1.337474  
437.000000	1.360346  
437.500000	1.397571  
438.000000	1.440039  
438.500000	1.483058  
439.000000	1.514081  
439.500000	1.529211  
440.000000	1.532324  
440.500000	1.533481  
441.000000	1.526363  
441.500000	1.502770  
442.000000	1.475415  
442.500000	1.445792  
443.000000	1.435440  
443.500000	1.423877  
444.000000	1.414947  
444.500000	1.412547  

