PE FL                   SPECTRUM    ASCII       PEDS        1.60        
  -1
PM4A0F~1
23/10/10
10:40:05.00
23/10/10
10:40:05.00


444.500000
1









LS55
15.00
5.00
5.00
SCAN
1
20
100
100
0
500
0
2
0
1
7
ON
435 365 
1 0 0
#HDR
-1
-1
#GR
NM

0.00002384185791015625
0.0
300.000000
0.500000
290
8
3.608788
-4.025000
#DATA
300.000000	-4.025000 
300.500000	-3.425100 
301.000000	-2.791437 
301.500000	-2.512780 
302.000000	-2.085306 
302.500000	-1.666175 
303.000000	-1.349428 
303.500000	-1.505203 
304.000000	-1.489372 
304.500000	-1.480204 
305.000000	-1.658690 
305.500000	-1.786211 
306.000000	-1.773419 
306.500000	-1.406357 
307.000000	-0.993532 
307.500000	-0.385020 
308.000000	0.033237  
308.500000	0.423103  
309.000000	0.714265  
309.500000	0.659372  
310.000000	0.166727  
310.500000	-0.305828 
311.000000	-0.398785 
311.500000	-0.449522 
312.000000	-0.240977 
312.500000	0.079196  
313.000000	0.555479  
313.500000	0.995591  
314.000000	1.321221  
314.500000	1.113355  
315.000000	0.599937  
315.500000	0.176507  
316.000000	-0.185444 
316.500000	-0.211729 
317.000000	-0.080403 
317.500000	0.268604  
318.000000	0.639942  
318.500000	1.135681  
319.000000	1.611829  
319.500000	1.697289  
320.000000	1.596297  
320.500000	1.308426  
321.000000	1.249361  
321.500000	1.273258  
322.000000	1.474004  
322.500000	1.703364  
323.000000	2.028145  
323.500000	2.500164  
324.000000	2.747979  
324.500000	2.837163  
325.000000	2.661327  
325.500000	2.382939  
326.000000	2.090411  
326.500000	1.913373  
327.000000	1.728201  
327.500000	1.644714  
328.000000	1.688172  
328.500000	1.769311  
329.000000	1.999736  
329.500000	2.383485  
330.000000	2.673383  
330.500000	2.864375  
331.000000	3.114174  
331.500000	3.355533  
332.000000	3.608788  
332.500000	3.595591  
333.000000	3.418929  
333.500000	3.247623  
334.000000	3.130060  
334.500000	2.878647  
335.000000	2.509464  
335.500000	2.191759  
336.000000	1.959115  
336.500000	1.764757  
337.000000	1.571540  
337.500000	1.442825  
338.000000	1.385724  
338.500000	1.518577  
339.000000	1.713838  
339.500000	1.966974  
340.000000	2.073868  
340.500000	2.089513  
341.000000	1.917690  
341.500000	1.699932  
342.000000	1.551410  
342.500000	1.290263  
343.000000	1.096097  
343.500000	1.053344  
344.000000	1.240776  
344.500000	1.414664  
345.000000	1.512570  
345.500000	1.412830  
346.000000	1.286552  
346.500000	1.311377  
347.000000	1.154494  
347.500000	0.924644  
348.000000	0.799560  
348.500000	0.854779  
349.000000	0.982263  
349.500000	1.149081  
350.000000	1.254685  
350.500000	1.386470  
351.000000	1.536304  
351.500000	1.486349  
352.000000	1.360691  
352.500000	1.217005  
353.000000	0.968612  
353.500000	0.665147  
354.000000	0.421760  
354.500000	0.192398  
355.000000	0.162627  
355.500000	0.239276  
356.000000	0.305094  
356.500000	0.529072  
357.000000	0.813668  
357.500000	1.046830  
358.000000	1.180521  
358.500000	1.221932  
359.000000	1.166106  
359.500000	1.099365  
360.000000	0.962460  
360.500000	0.805004  
361.000000	0.739843  
361.500000	0.732397  
362.000000	0.833109  
362.500000	0.922066  
363.000000	1.039925  
363.500000	1.115400  
364.000000	1.170121  
364.500000	1.135812  
365.000000	1.103340  
365.500000	1.060938  
366.000000	0.984934  
366.500000	1.020467  
367.000000	1.024088  
367.500000	1.055757  
368.000000	1.045534  
368.500000	1.019694  
369.000000	0.973546  
369.500000	0.882192  
370.000000	0.860599  
370.500000	0.794392  
371.000000	0.879113  
371.500000	0.952874  
372.000000	1.122564  
372.500000	1.265549  
373.000000	1.381959  
373.500000	1.490951  
374.000000	1.414733  
374.500000	1.346474  
375.000000	1.217316  
375.500000	1.151222  
376.000000	1.112689  
376.500000	1.165607  
377.000000	1.235949  
377.500000	1.374230  
378.000000	1.575208  
378.500000	1.632390  
379.000000	1.623872  
379.500000	1.485939  
380.000000	1.318293  
380.500000	1.154484  
381.000000	1.020033  
381.500000	0.865538  
382.000000	0.806304  
382.500000	0.854436  
383.000000	0.984214  
383.500000	1.157885  
384.000000	1.289152  
384.500000	1.376669  
385.000000	1.459084  
385.500000	1.501274  
386.000000	1.493203  
386.500000	1.506652  
387.000000	1.531043  
387.500000	1.587417  
388.000000	1.654581  
388.500000	1.716700  
389.000000	1.754832  
389.500000	1.790283  
390.000000	1.714958  
390.500000	1.604492  
391.000000	1.489788  
391.500000	1.391513  
392.000000	1.311362  
392.500000	1.199682  
393.000000	1.132119  
393.500000	1.095120  
394.000000	1.144600  
394.500000	1.176146  
395.000000	1.235966  
395.500000	1.257188  
396.000000	1.323729  
396.500000	1.402037  
397.000000	1.422605  
397.500000	1.439796  
398.000000	1.449225  
398.500000	1.474145  
399.000000	1.484085  
399.500000	1.549237  
400.000000	1.569308  
400.500000	1.621145  
401.000000	1.663485  
401.500000	1.666082  
402.000000	1.634433  
402.500000	1.605878  
403.000000	1.522985  
403.500000	1.417435  
404.000000	1.357048  
404.500000	1.293764  
405.000000	1.265562  
405.500000	1.243823  
406.000000	1.236946  
406.500000	1.207228  
407.000000	1.232701  
407.500000	1.247057  
408.000000	1.224808  
408.500000	1.213896  
409.000000	1.204305  
409.500000	1.181867  
410.000000	1.108995  
410.500000	1.054121  
411.000000	1.014503  
411.500000	1.043273  
412.000000	1.088207  
412.500000	1.098849  
413.000000	1.135596  
413.500000	1.202205  
414.000000	1.261059  
414.500000	1.249450  
415.000000	1.236315  
415.500000	1.223212  
416.000000	1.225876  
416.500000	1.248457  
417.000000	1.241390  
417.500000	1.236039  
418.000000	1.222630  
418.500000	1.183536  
419.000000	1.087753  
419.500000	0.979775  
420.000000	0.908071  
420.500000	0.842274  
421.000000	0.826365  
421.500000	0.848730  
422.000000	0.875317  
422.500000	0.923069  
423.000000	0.955835  
423.500000	0.966114  
424.000000	0.972368  
424.500000	1.005071  
425.000000	1.007875  
425.500000	1.021810  
426.000000	1.061063  
426.500000	1.090646  
427.000000	1.104468  
427.500000	1.087103  
428.000000	1.078565  
428.500000	1.050673  
429.000000	1.033815  
429.500000	0.994904  
430.000000	0.961715  
430.500000	0.949030  
431.000000	0.951520  
431.500000	0.968440  
432.000000	0.966147  
432.500000	0.974479  
433.000000	0.991225  
433.500000	1.025489  
434.000000	1.060689  
434.500000	1.107896  
435.000000	1.133205  
435.500000	1.146376  
436.000000	1.151263  
436.500000	1.117468  
437.000000	1.072398  
437.500000	1.010125  
438.000000	0.945787  
438.500000	0.872873  
439.000000	0.829587  
439.500000	0.807830  
440.000000	0.799672  
440.500000	0.823743  
441.000000	0.866971  
441.500000	0.929780  
442.000000	0.998867  
442.500000	1.070515  
443.000000	1.118963  
443.500000	1.158232  
444.000000	1.183374  
444.500000	1.172684  

