PE FL                   SPECTRUM    ASCII       PEDS        1.60        
  -1
PM5AD6~1
23/10/10
10:44:04.00
23/10/10
10:44:04.00


444.500000
1









LS55
50.00
5.00
5.00
SCAN
1
20
100
100
0
500
0
2
0
1
7
ON
435 365 
1 0 0
#HDR
-1
-1
#GR
NM

0.00002384185791015625
0.0
300.000000
0.500000
290
8
4.999997
-0.509646
#DATA
300.000000	0.000000  
300.500000	0.998719  
301.000000	1.697075  
301.500000	2.036802  
302.000000	2.456024  
302.500000	2.497464  
303.000000	2.385154  
303.500000	1.944584  
304.000000	1.644253  
304.500000	1.490918  
305.000000	1.475560  
305.500000	1.646115  
306.000000	1.748956  
306.500000	2.141567  
307.000000	2.298205  
307.500000	2.214015  
308.000000	2.050966  
308.500000	2.175686  
309.000000	2.314118  
309.500000	2.501981  
310.000000	3.070213  
310.500000	3.670683  
311.000000	4.403518  
311.500000	4.947875  
312.000000	4.999997  
312.500000	4.892342  
313.000000	4.619260  
313.500000	4.077200  
314.000000	3.238095  
314.500000	2.570223  
315.000000	1.890164  
315.500000	1.373721  
316.000000	1.073252  
316.500000	0.748273  
317.000000	0.934313  
317.500000	1.271783  
318.000000	1.716828  
318.500000	2.121032  
319.000000	2.617816  
319.500000	3.030734  
320.000000	3.273469  
320.500000	3.370237  
321.000000	3.165662  
321.500000	3.103388  
322.000000	2.938085  
322.500000	2.737786  
323.000000	2.481636  
323.500000	2.253649  
324.000000	2.091268  
324.500000	2.078736  
325.000000	2.071784  
325.500000	1.977805  
326.000000	1.916173  
326.500000	1.800715  
327.000000	1.641557  
327.500000	1.507130  
328.000000	1.244128  
328.500000	0.896219  
329.000000	0.726956  
329.500000	0.665659  
330.000000	0.681163  
330.500000	0.717812  
331.000000	0.698789  
331.500000	0.707590  
332.000000	0.884434  
332.500000	1.040071  
333.000000	1.031045  
333.500000	1.043945  
334.000000	1.016296  
334.500000	0.880431  
335.000000	0.652496  
335.500000	0.348736  
336.000000	0.069878  
336.500000	0.014469  
337.000000	-0.055837 
337.500000	0.070731  
338.000000	0.335846  
338.500000	0.613957  
339.000000	0.835522  
339.500000	1.023611  
340.000000	1.093253  
340.500000	1.040244  
341.000000	1.001019  
341.500000	0.642649  
342.000000	0.291451  
342.500000	0.104013  
343.000000	-0.085648 
343.500000	-0.272046 
344.000000	-0.417997 
344.500000	-0.488776 
345.000000	-0.509646 
345.500000	-0.365080 
346.000000	-0.340554 
346.500000	-0.360374 
347.000000	-0.219284 
347.500000	-0.019675 
348.000000	0.219181  
348.500000	0.518676  
349.000000	0.929059  
349.500000	1.203605  
350.000000	1.429422  
350.500000	1.537864  
351.000000	1.403692  
351.500000	1.217505  
352.000000	0.984711  
352.500000	0.789709  
353.000000	0.592011  
353.500000	0.585244  
354.000000	0.564458  
354.500000	0.625945  
355.000000	0.751681  
355.500000	0.805282  
356.000000	0.879436  
356.500000	0.941959  
357.000000	0.939311  
357.500000	0.925658  
358.000000	0.988766  
358.500000	1.050611  
359.000000	1.081129  
359.500000	1.112981  
360.000000	1.093983  
360.500000	1.127117  
361.000000	1.181086  
361.500000	1.125907  
362.000000	1.097592  
362.500000	1.039154  
363.000000	1.043554  
363.500000	1.006734  
364.000000	0.935241  
364.500000	0.843392  
365.000000	0.778864  
365.500000	0.869630  
366.000000	0.890103  
366.500000	0.889384  
367.000000	0.805027  
367.500000	0.785723  
368.000000	0.685966  
368.500000	0.570108  
369.000000	0.503189  
369.500000	0.516428  
370.000000	0.674567  
370.500000	0.893481  
371.000000	1.199991  
371.500000	1.470787  
372.000000	1.769041  
372.500000	1.955180  
373.000000	2.052924  
373.500000	2.092052  
374.000000	2.094245  
374.500000	2.089850  
375.000000	1.972332  
375.500000	1.832464  
376.000000	1.652440  
376.500000	1.495832  
377.000000	1.334198  
377.500000	1.123196  
378.000000	0.975779  
378.500000	0.982156  
379.000000	1.096438  
379.500000	1.190398  
380.000000	1.286786  
380.500000	1.370428  
381.000000	1.448592  
381.500000	1.539143  
382.000000	1.559392  
382.500000	1.569001  
383.000000	1.625424  
383.500000	1.743339  
384.000000	1.911745  
384.500000	2.063178  
385.000000	2.171669  
385.500000	2.309094  
386.000000	2.466918  
386.500000	2.534939  
387.000000	2.499745  
387.500000	2.425323  
388.000000	2.301661  
388.500000	2.186068  
389.000000	2.033872  
389.500000	1.865299  
390.000000	1.755538  
390.500000	1.736199  
391.000000	1.721373  
391.500000	1.688133  
392.000000	1.655576  
392.500000	1.620742  
393.000000	1.568968  
393.500000	1.446552  
394.000000	1.314625  
394.500000	1.193466  
395.000000	1.163070  
395.500000	1.145706  
396.000000	1.146572  
396.500000	1.206940  
397.000000	1.342720  
397.500000	1.534040  
398.000000	1.655967  
398.500000	1.745531  
399.000000	1.771411  
399.500000	1.734221  
400.000000	1.628063  
400.500000	1.490078  
401.000000	1.354655  
401.500000	1.254829  
402.000000	1.209292  
402.500000	1.194306  
403.000000	1.213304  
403.500000	1.218943  
404.000000	1.161977  
404.500000	1.089687  
405.000000	0.970991  
405.500000	0.849491  
406.000000	0.760234  
406.500000	0.733685  
407.000000	0.780216  
407.500000	0.884638  
408.000000	1.017071  
408.500000	1.096422  
409.000000	1.184375  
409.500000	1.195511  
410.000000	1.139668  
410.500000	1.019366  
411.000000	0.884637  
411.500000	0.768615  
412.000000	0.684531  
412.500000	0.650990  
413.000000	0.610997  
413.500000	0.638513  
414.000000	0.686837  
414.500000	0.708803  
415.000000	0.682007  
415.500000	0.632967  
416.000000	0.566970  
416.500000	0.503438  
417.000000	0.454400  
417.500000	0.396688  
418.000000	0.355677  
418.500000	0.330917  
419.000000	0.296084  
419.500000	0.275623  
420.000000	0.275885  
420.500000	0.279351  
421.000000	0.293610  
421.500000	0.295041  
422.000000	0.302679  
422.500000	0.298345  
423.000000	0.267428  
423.500000	0.202824  
424.000000	0.159645  
424.500000	0.128554  
425.000000	0.108506  
425.500000	0.095352  
426.000000	0.084854  
426.500000	0.121619  
427.000000	0.193402  
427.500000	0.243829  
428.000000	0.271481  
428.500000	0.307446  
429.000000	0.339320  
429.500000	0.356250  
430.000000	0.347781  
430.500000	0.321970  
431.000000	0.318739  
431.500000	0.344411  
432.000000	0.360274  
432.500000	0.374732  
433.000000	0.394676  
433.500000	0.406353  
434.000000	0.395253  
434.500000	0.363126  
435.000000	0.318917  
435.500000	0.268787  
436.000000	0.232007  
436.500000	0.208502  
437.000000	0.210094  
437.500000	0.237449  
438.000000	0.262141  
438.500000	0.262405  
439.000000	0.265495  
439.500000	0.271920  
440.000000	0.270220  
440.500000	0.259725  
441.000000	0.237140  
441.500000	0.231831  
442.000000	0.249453  
442.500000	0.272837  
443.000000	0.287188  
443.500000	0.299301  
444.000000	0.328814  
444.500000	0.355839  

