PE FL                   SPECTRUM    ASCII       PEDS        1.60        
  -1
PMEF5D~1
23/10/12
19:22:28.00
23/10/12
19:22:28.00


444.500000
1









LS55
25.00
5.00
5.00
SCAN
1
20
100
500
0
500
0
2
0
1
7
ON
435 365 
1 0 0
#HDR
-1
-1
#GR
NM

0.00002384185791015625
0.0
250.000000
0.500000
390
8
27.034766
-5.000000
#DATA
250.000000	-5.000000 
250.500000	-3.587627 
251.000000	-2.399546 
251.500000	-1.583684 
252.000000	-1.103771 
252.500000	-1.349242 
253.000000	-1.423373 
253.500000	-1.367397 
254.000000	-1.419064 
254.500000	-1.338365 
255.000000	-1.032156 
255.500000	-0.473926 
256.000000	-0.165880 
256.500000	0.046661  
257.000000	-0.685042 
257.500000	-1.525896 
258.000000	-2.287197 
258.500000	-3.151549 
259.000000	-3.927357 
259.500000	-4.562319 
260.000000	-4.654806 
260.500000	-4.395256 
261.000000	-3.823325 
261.500000	-3.691075 
262.000000	-3.540838 
262.500000	-3.592648 
263.000000	-3.751133 
263.500000	-3.874560 
264.000000	-4.091321 
264.500000	-3.975596 
265.000000	-3.544209 
265.500000	-2.776218 
266.000000	-1.736194 
266.500000	-0.339478 
267.000000	0.859056  
267.500000	1.628872  
268.000000	2.070756  
268.500000	1.973252  
269.000000	1.531093  
269.500000	0.699116  
270.000000	-0.377071 
270.500000	-1.659719 
271.000000	-2.412473 
271.500000	-2.755862 
272.000000	-2.813529 
272.500000	-2.733040 
273.000000	-2.340194 
273.500000	-1.663702 
274.000000	-0.991621 
274.500000	-0.855464 
275.000000	-1.118654 
275.500000	-1.247189 
276.000000	-1.352428 
276.500000	-1.240328 
277.000000	-1.313180 
277.500000	-1.173472 
278.000000	-0.654016 
278.500000	0.097350  
279.000000	0.296660  
279.500000	-0.047864 
280.000000	-0.818589 
280.500000	-1.491595 
281.000000	-1.861542 
281.500000	-2.357179 
282.000000	-2.583115 
282.500000	-2.351275 
283.000000	-1.430627 
283.500000	-0.582137 
284.000000	-0.029146 
284.500000	0.041789  
285.000000	0.157125  
285.500000	0.351004  
286.000000	0.335804  
286.500000	0.296995  
287.000000	0.368061  
287.500000	0.689921  
288.000000	1.095472  
288.500000	1.302559  
289.000000	1.023380  
289.500000	0.785542  
290.000000	0.396826  
290.500000	-0.106301 
291.000000	-0.637240 
291.500000	-0.993617 
292.000000	-1.003070 
292.500000	-1.102670 
293.000000	-1.504256 
293.500000	-1.718189 
294.000000	-1.659319 
294.500000	-1.503240 
295.000000	-1.409224 
295.500000	-1.375845 
296.000000	-1.125595 
296.500000	-0.627484 
297.000000	-0.288875 
297.500000	-0.464978 
298.000000	-0.792840 
298.500000	-1.058495 
299.000000	-1.230447 
299.500000	-1.372466 
300.000000	-1.465927 
300.500000	-1.620660 
301.000000	-1.632006 
301.500000	-1.228746 
302.000000	-1.131668 
302.500000	-1.079136 
303.000000	-0.888636 
303.500000	-0.551960 
304.000000	0.179030  
304.500000	1.048246  
305.000000	1.899475  
305.500000	2.550138  
306.000000	3.736312  
306.500000	4.945463  
307.000000	6.005878  
307.500000	7.082259  
308.000000	7.790156  
308.500000	8.806545  
309.000000	9.691710  
309.500000	10.472862 
310.000000	10.611939 
310.500000	10.955904 
311.000000	11.182787 
311.500000	11.335389 
312.000000	11.706132 
312.500000	12.052447 
313.000000	13.076695 
313.500000	14.213012 
314.000000	15.567270 
314.500000	16.486323 
315.000000	17.511040 
315.500000	18.323169 
316.000000	18.875559 
316.500000	19.148542 
317.000000	19.038503 
317.500000	18.960157 
318.000000	18.959662 
318.500000	19.098481 
319.000000	19.188832 
319.500000	19.561842 
320.000000	19.928867 
320.500000	20.435803 
321.000000	21.230113 
321.500000	21.880447 
322.000000	22.800713 
322.500000	23.859618 
323.000000	25.001831 
323.500000	26.030286 
324.000000	26.717455 
324.500000	27.034766 
325.000000	26.932296 
325.500000	26.768895 
326.000000	26.173810 
326.500000	25.442924 
327.000000	24.454693 
327.500000	23.729411 
328.000000	23.374919 
328.500000	23.142937 
329.000000	23.081856 
329.500000	23.012062 
330.000000	23.189145 
330.500000	23.351108 
331.000000	23.474979 
331.500000	23.069539 
332.000000	22.641087 
332.500000	22.094660 
333.000000	21.319216 
333.500000	20.455003 
334.000000	19.436432 
334.500000	18.310154 
335.000000	17.554597 
335.500000	17.061474 
336.000000	16.421456 
336.500000	15.895495 
337.000000	15.407209 
337.500000	15.096759 
338.000000	14.940884 
338.500000	14.710990 
339.000000	14.358693 
339.500000	14.137146 
340.000000	14.118750 
340.500000	13.862398 
341.000000	13.509709 
341.500000	13.032234 
342.000000	12.473665 
342.500000	12.070543 
343.000000	11.674743 
343.500000	11.237732 
344.000000	10.949050 
344.500000	10.989286 
345.000000	11.131697 
345.500000	11.373011 
346.000000	11.536148 
346.500000	11.617234 
347.000000	11.774898 
347.500000	11.878915 
348.000000	11.764184 
348.500000	11.627612 
349.000000	11.593897 
349.500000	11.644576 
350.000000	11.839893 
350.500000	11.971651 
351.000000	12.018653 
351.500000	12.043677 
352.000000	12.056241 
352.500000	11.887880 
353.000000	11.658330 
353.500000	11.458874 
354.000000	11.307323 
354.500000	11.278170 
355.000000	11.287333 
355.500000	11.324431 
356.000000	11.383058 
356.500000	11.471144 
357.000000	11.364145 
357.500000	11.198602 
358.000000	11.060003 
358.500000	10.940307 
359.000000	10.761086 
359.500000	10.686440 
360.000000	10.766306 
360.500000	10.939194 
361.000000	11.243041 
361.500000	11.458189 
362.000000	11.733337 
362.500000	12.073204 
363.000000	12.371115 
363.500000	12.383336 
364.000000	12.279197 
364.500000	12.054322 
365.000000	11.889735 
365.500000	11.824158 
366.000000	11.570614 
366.500000	11.455426 
367.000000	11.396981 
367.500000	11.476063 
368.000000	11.579957 
368.500000	11.718642 
369.000000	11.727152 
369.500000	11.767726 
370.000000	11.923040 
370.500000	12.023244 
371.000000	12.178467 
371.500000	12.241832 
372.000000	12.304751 
372.500000	12.443471 
373.000000	12.635555 
373.500000	12.826045 
374.000000	13.053711 
374.500000	13.331419 
375.000000	13.734543 
375.500000	14.215705 
376.000000	14.610647 
376.500000	14.866727 
377.000000	15.024064 
377.500000	15.078793 
378.000000	15.195118 
378.500000	15.210569 
379.000000	15.102754 
379.500000	15.120755 
380.000000	15.167630 
380.500000	15.318078 
381.000000	15.570140 
381.500000	15.792997 
382.000000	15.957292 
382.500000	16.244511 
383.000000	16.457859 
383.500000	16.591188 
384.000000	16.754958 
384.500000	16.790127 
385.000000	16.831991 
385.500000	16.897410 
386.000000	16.925012 
386.500000	16.945849 
387.000000	17.184667 
387.500000	17.462792 
388.000000	17.779504 
388.500000	18.133421 
389.000000	18.373346 
389.500000	18.521044 
390.000000	18.570596 
390.500000	18.544662 
391.000000	18.363570 
391.500000	18.175816 
392.000000	18.085599 
392.500000	18.043031 
393.000000	18.135323 
393.500000	18.299129 
394.000000	18.496852 
394.500000	18.690038 
395.000000	18.985415 
395.500000	19.208902 
396.000000	19.371064 
396.500000	19.568727 
397.000000	19.649339 
397.500000	19.738401 
398.000000	19.895540 
398.500000	19.921769 
399.000000	19.813651 
399.500000	19.764293 
400.000000	19.647006 
400.500000	19.500966 
401.000000	19.415274 
401.500000	19.275403 
402.000000	19.236479 
402.500000	19.342756 
403.000000	19.441719 
403.500000	19.533272 
404.000000	19.639338 
404.500000	19.600946 
405.000000	19.594647 
405.500000	19.667021 
406.000000	19.725151 
406.500000	19.857077 
407.000000	20.052459 
407.500000	20.218370 
408.000000	20.394050 
408.500000	20.514850 
409.000000	20.395835 
409.500000	20.236939 
410.000000	20.019760 
410.500000	19.684443 
411.000000	19.405267 
411.500000	19.162091 
412.000000	18.969275 
412.500000	18.947970 
413.000000	19.057125 
413.500000	19.158985 
414.000000	19.347429 
414.500000	19.569551 
415.000000	19.678321 
415.500000	19.693300 
416.000000	19.575373 
416.500000	19.288609 
417.000000	18.916072 
417.500000	18.404308 
418.000000	17.854259 
418.500000	17.310382 
419.000000	16.896360 
419.500000	16.497172 
420.000000	16.212935 
420.500000	15.954131 
421.000000	15.666685 
421.500000	15.505657 
422.000000	15.344479 
422.500000	15.251012 
423.000000	15.137274 
423.500000	15.080780 
424.000000	14.955344 
424.500000	14.821899 
425.000000	14.670278 
425.500000	14.397461 
426.000000	14.156788 
426.500000	13.931909 
427.000000	13.723454 
427.500000	13.531846 
428.000000	13.459922 
428.500000	13.409438 
429.000000	13.411987 
429.500000	13.493931 
430.000000	13.482129 
430.500000	13.373797 
431.000000	13.244242 
431.500000	13.052557 
432.000000	12.800784 
432.500000	12.545052 
433.000000	12.320190 
433.500000	12.145200 
434.000000	12.086883 
434.500000	12.047460 
435.000000	11.957292 
435.500000	11.904335 
436.000000	11.836014 
436.500000	11.708465 
437.000000	11.585841 
437.500000	11.505473 
438.000000	11.494683 
438.500000	11.590420 
439.000000	11.727965 
439.500000	11.833074 
440.000000	11.953030 
440.500000	12.033920 
441.000000	12.055477 
441.500000	12.030933 
442.000000	11.992567 
442.500000	11.957039 
443.000000	11.946261 
443.500000	11.942078 
444.000000	11.897147 
444.500000	11.838335 

