PE FL                   SPECTRUM    ASCII       PEDS        1.60        
  -1
PMEF1D~1
23/10/12
19:19:46.00
23/10/12
19:19:46.00


444.500000
1









LS55
5.00
5.00
5.00
SCAN
1
20
100
500
0
500
0
2
0
1
7
ON
435 365 
1 0 0
#HDR
-1
-1
#GR
NM

0.00002384185791015625
0.0
250.000000
0.500000
390
8
64.661680
-5.000000
#DATA
250.000000	-5.000000 
250.500000	-4.010868 
251.000000	-3.171076 
251.500000	-2.608044 
252.000000	-1.874073 
252.500000	-1.331068 
253.000000	-0.795968 
253.500000	-0.769661 
254.000000	-0.896956 
254.500000	-1.201313 
255.000000	-1.385931 
255.500000	-1.444524 
256.000000	-1.545852 
256.500000	-1.541137 
257.000000	-1.583910 
257.500000	-1.452532 
258.000000	-1.534710 
258.500000	-1.583512 
259.000000	-1.956362 
259.500000	-2.563342 
260.000000	-2.954164 
260.500000	-3.362873 
261.000000	-3.440882 
261.500000	-3.397201 
262.000000	-3.161660 
262.500000	-2.696869 
263.000000	-1.719756 
263.500000	-0.672083 
264.000000	-0.007040 
264.500000	0.329597  
265.000000	-0.048411 
265.500000	-0.495603 
266.000000	-0.885328 
266.500000	-1.168177 
267.000000	-1.459378 
267.500000	-1.379042 
268.000000	-0.808588 
268.500000	-0.107188 
269.000000	0.510122  
269.500000	0.227467  
270.000000	-0.346013 
270.500000	-0.938597 
271.000000	-1.432602 
271.500000	-2.073104 
272.000000	-2.696082 
272.500000	-2.704884 
273.000000	-1.936840 
273.500000	-0.659002 
274.000000	0.233495  
274.500000	0.804039  
275.000000	1.087223  
275.500000	1.080365  
276.000000	0.576486  
276.500000	-0.631240 
277.000000	-1.912578 
277.500000	-2.752789 
278.000000	-2.911058 
278.500000	-2.768397 
279.000000	-2.054986 
279.500000	-0.982454 
280.000000	0.098460  
280.500000	1.007991  
281.000000	1.346606  
281.500000	1.146222  
282.000000	0.808346  
282.500000	0.402380  
283.000000	-0.035977 
283.500000	-0.172740 
284.000000	-0.145034 
284.500000	-0.231372 
285.000000	-0.315103 
285.500000	-0.527896 
286.000000	-1.035935 
286.500000	-1.569599 
287.000000	-2.304941 
287.500000	-2.971379 
288.000000	-3.330686 
288.500000	-3.584318 
289.000000	-3.708027 
289.500000	-3.639621 
290.000000	-3.383624 
290.500000	-3.106011 
291.000000	-2.913846 
291.500000	-2.976295 
292.000000	-3.010726 
292.500000	-2.858087 
293.000000	-2.735829 
293.500000	-2.602182 
294.000000	-2.500496 
294.500000	-2.264001 
295.000000	-1.866862 
295.500000	-1.661406 
296.000000	-1.771575 
296.500000	-2.021122 
297.000000	-2.296230 
297.500000	-2.591045 
298.000000	-2.814122 
298.500000	-3.289469 
299.000000	-3.696148 
299.500000	-3.913256 
300.000000	-3.895448 
300.500000	-3.703932 
301.000000	-3.233713 
301.500000	-2.534632 
302.000000	-1.516603 
302.500000	-0.323445 
303.000000	0.608315  
303.500000	1.223135  
304.000000	1.257198  
304.500000	0.872455  
305.000000	0.103702  
305.500000	-0.909098 
306.000000	-1.975601 
306.500000	-2.796245 
307.000000	-3.230451 
307.500000	-3.109345 
308.000000	-2.422190 
308.500000	-1.401224 
309.000000	-0.271475 
309.500000	0.941005  
310.000000	1.824717  
310.500000	2.384596  
311.000000	2.519989  
311.500000	2.162183  
312.000000	1.649351  
312.500000	1.125605  
313.000000	0.765572  
313.500000	0.467417  
314.000000	0.387733  
314.500000	0.452432  
315.000000	0.649946  
315.500000	0.792493  
316.000000	0.923912  
316.500000	1.130402  
317.000000	1.486084  
317.500000	1.833645  
318.000000	2.215207  
318.500000	2.569542  
319.000000	2.936015  
319.500000	3.389159  
320.000000	3.543975  
320.500000	3.671488  
321.000000	3.670727  
321.500000	3.780515  
322.000000	3.765681  
322.500000	3.767148  
323.000000	3.795774  
323.500000	3.942577  
324.000000	4.408695  
324.500000	4.826847  
325.000000	5.358524  
325.500000	5.727969  
326.000000	6.148224  
326.500000	6.505356  
327.000000	6.717159  
327.500000	6.771313  
328.000000	6.715237  
328.500000	6.886792  
329.000000	7.316669  
329.500000	7.949773  
330.000000	8.715060  
330.500000	9.467514  
331.000000	10.273715 
331.500000	11.020157 
332.000000	11.411975 
332.500000	11.550209 
333.000000	11.424627 
333.500000	11.404973 
334.000000	11.261852 
334.500000	11.308488 
335.000000	11.233483 
335.500000	11.108431 
336.000000	10.980566 
336.500000	10.722864 
337.000000	10.507221 
337.500000	10.218196 
338.000000	10.178216 
338.500000	10.160982 
339.000000	10.529489 
339.500000	11.022651 
340.000000	11.546266 
340.500000	11.996599 
341.000000	12.243202 
341.500000	12.334221 
342.000000	12.202236 
342.500000	12.051429 
343.000000	11.875094 
343.500000	11.665365 
344.000000	11.419899 
344.500000	11.272131 
345.000000	11.221916 
345.500000	11.239420 
346.000000	11.271771 
346.500000	11.361089 
347.000000	11.507165 
347.500000	11.873987 
348.000000	12.172496 
348.500000	12.292389 
349.000000	12.360185 
349.500000	12.501748 
350.000000	12.740818 
350.500000	12.971245 
351.000000	13.139747 
351.500000	13.357097 
352.000000	13.873375 
352.500000	14.430120 
353.000000	14.804184 
353.500000	15.193089 
354.000000	15.779396 
354.500000	16.553296 
355.000000	17.449746 
355.500000	18.496862 
356.000000	19.837866 
356.500000	21.485900 
357.000000	23.193567 
357.500000	24.677423 
358.000000	25.783666 
358.500000	26.755480 
359.000000	27.567543 
359.500000	28.038565 
360.000000	28.299898 
360.500000	28.726607 
361.000000	29.291660 
361.500000	29.831516 
362.000000	30.364669 
362.500000	30.631633 
363.000000	30.926544 
363.500000	31.227784 
364.000000	31.311317 
364.500000	31.406563 
365.000000	31.557643 
365.500000	31.789948 
366.000000	31.850307 
366.500000	31.817385 
367.000000	31.396023 
367.500000	30.805252 
368.000000	30.074006 
368.500000	29.313642 
369.000000	28.859622 
369.500000	28.688511 
370.000000	28.882772 
370.500000	29.470721 
371.000000	30.139144 
371.500000	30.761378 
372.000000	31.204011 
372.500000	31.546051 
373.000000	31.812854 
373.500000	32.164332 
374.000000	32.449380 
374.500000	32.774333 
375.000000	33.377324 
375.500000	34.133438 
376.000000	35.031792 
376.500000	35.813373 
377.000000	36.310522 
377.500000	36.909390 
378.000000	37.640100 
378.500000	38.243303 
379.000000	38.482493 
379.500000	38.615031 
380.000000	38.459918 
380.500000	38.278971 
381.000000	37.977359 
381.500000	37.305973 
382.000000	36.657037 
382.500000	36.457052 
383.000000	36.488963 
383.500000	36.523850 
384.000000	36.625203 
384.500000	36.539977 
385.000000	36.264466 
385.500000	36.063458 
386.000000	35.741678 
386.500000	35.207526 
387.000000	34.630504 
387.500000	34.003394 
388.000000	33.197937 
388.500000	32.325917 
389.000000	31.152391 
389.500000	29.583439 
390.000000	27.787767 
390.500000	26.280064 
391.000000	24.890124 
391.500000	23.687318 
392.000000	22.601356 
392.500000	21.787664 
393.000000	21.206416 
393.500000	20.818917 
394.000000	20.404765 
394.500000	19.926703 
395.000000	19.798651 
395.500000	19.846847 
396.000000	20.021085 
396.500000	20.230195 
397.000000	20.474348 
397.500000	20.683925 
398.000000	20.688398 
398.500000	20.470339 
399.000000	19.921365 
399.500000	19.305405 
400.000000	18.527914 
400.500000	17.688674 
401.000000	16.962592 
401.500000	16.391823 
402.000000	16.020230 
402.500000	15.875074 
403.000000	15.868122 
403.500000	15.882565 
404.000000	15.943277 
404.500000	15.962410 
405.000000	15.782355 
405.500000	15.585889 
406.000000	15.293116 
406.500000	14.894245 
407.000000	14.584786 
407.500000	14.311026 
408.000000	14.087081 
408.500000	13.831504 
409.000000	13.692385 
409.500000	13.598812 
410.000000	13.637323 
410.500000	13.679199 
411.000000	13.692960 
411.500000	13.890298 
412.000000	14.151124 
412.500000	14.462099 
413.000000	14.681093 
413.500000	14.912578 
414.000000	15.092491 
414.500000	15.313993 
415.000000	15.440277 
415.500000	15.537576 
416.000000	15.761182 
416.500000	16.085599 
417.000000	16.563106 
417.500000	17.034328 
418.000000	17.538028 
418.500000	17.926125 
419.000000	18.231655 
419.500000	18.308398 
420.000000	18.399146 
420.500000	18.577684 
421.000000	18.831242 
421.500000	19.233195 
422.000000	19.830436 
422.500000	20.517064 
423.000000	21.102439 
423.500000	21.677224 
424.000000	21.997042 
424.500000	22.336373 
425.000000	22.826124 
425.500000	23.379091 
426.000000	24.046849 
426.500000	24.824521 
427.000000	25.583329 
427.500000	26.287277 
428.000000	26.926588 
428.500000	27.204771 
429.000000	27.365879 
429.500000	27.663420 
430.000000	28.137881 
430.500000	29.028818 
431.000000	30.332666 
431.500000	31.896774 
432.000000	33.745234 
432.500000	36.123544 
433.000000	38.679790 
433.500000	41.153470 
434.000000	43.591199 
434.500000	45.893788 
435.000000	48.187762 
435.500000	50.289420 
436.000000	51.924235 
436.500000	52.873382 
437.000000	53.625713 
437.500000	54.045891 
438.000000	54.044027 
438.500000	53.709197 
439.000000	53.299908 
439.500000	53.110380 
440.000000	53.584402 
440.500000	54.521852 
441.000000	55.570856 
441.500000	57.037961 
442.000000	58.685473 
442.500000	60.404901 
443.000000	61.985534 
443.500000	63.250247 
444.000000	63.933794 
444.500000	64.661680 

