PE FL                   SPECTRUM    ASCII       PEDS        1.60        
  -1
PPA08D~1
23/10/10
16:12:28.00
23/10/10
16:12:28.00


444.500000
1









LS55
20.00
5.00
5.00
SCAN
1
20
100
100
0
500
0
2
0
1
7
ON
500 450 
1 0 0
#HDR
-1
-1
#GR
NM

0.00002384185791015625
0.0
250.000000
0.500000
390
8
5.137405
-3.653104
#DATA
250.000000	-1.401000 
250.500000	-1.207471 
251.000000	-1.402254 
251.500000	-1.787055 
252.000000	-2.058846 
252.500000	-2.311572 
253.000000	-2.518390 
253.500000	-2.833145 
254.000000	-3.445645 
254.500000	-3.653104 
255.000000	-3.388179 
255.500000	-3.010331 
256.000000	-2.865199 
256.500000	-2.658969 
257.000000	-2.459155 
257.500000	-2.155636 
258.000000	-1.858517 
258.500000	-2.047177 
259.000000	-2.491831 
259.500000	-2.885419 
260.000000	-3.123073 
260.500000	-3.278994 
261.000000	-3.340808 
261.500000	-3.402613 
262.000000	-3.321522 
262.500000	-3.194773 
263.000000	-2.968804 
263.500000	-2.881472 
264.000000	-2.868135 
264.500000	-3.060168 
265.000000	-3.119916 
265.500000	-3.081730 
266.000000	-2.924314 
266.500000	-2.736343 
267.000000	-2.665841 
267.500000	-2.142756 
268.000000	-1.377718 
268.500000	-0.673017 
269.000000	-0.263330 
269.500000	-0.128845 
270.000000	-0.104981 
270.500000	-0.292297 
271.000000	-0.673619 
271.500000	-1.486931 
272.000000	-2.048759 
272.500000	-2.254927 
273.000000	-2.379554 
273.500000	-2.332657 
274.000000	-2.313075 
274.500000	-2.335818 
275.000000	-2.352661 
275.500000	-2.324058 
276.000000	-2.608557 
276.500000	-2.672606 
277.000000	-2.388989 
277.500000	-2.388154 
278.000000	-2.312033 
278.500000	-2.052822 
279.000000	-1.711172 
279.500000	-1.402531 
280.000000	-1.003452 
280.500000	-0.969636 
281.000000	-0.745516 
281.500000	-0.284460 
282.000000	0.023479  
282.500000	-0.126343 
283.000000	-0.244651 
283.500000	-0.206845 
284.000000	-0.015538 
284.500000	0.525318  
285.000000	0.774958  
285.500000	1.205189  
286.000000	1.690334  
286.500000	2.069782  
287.000000	1.882198  
287.500000	1.130862  
288.000000	0.222835  
288.500000	-0.817244 
289.000000	-1.522582 
289.500000	-2.433392 
290.000000	-2.944949 
290.500000	-3.115895 
291.000000	-2.952484 
291.500000	-2.465577 
292.000000	-2.090680 
292.500000	-1.595894 
293.000000	-1.240756 
293.500000	-0.820044 
294.000000	-0.703320 
294.500000	-0.719559 
295.000000	-0.883970 
295.500000	-1.442123 
296.000000	-2.026013 
296.500000	-2.629296 
297.000000	-2.993361 
297.500000	-3.289627 
298.000000	-3.457663 
298.500000	-3.511537 
299.000000	-3.462795 
299.500000	-3.396294 
300.000000	-3.245913 
300.500000	-3.207863 
301.000000	-3.096953 
301.500000	-2.676561 
302.000000	-2.221882 
302.500000	-2.009709 
303.000000	-1.913240 
303.500000	-1.743842 
304.000000	-1.520354 
304.500000	-1.057138 
305.000000	-0.753531 
305.500000	-0.545201 
306.000000	-0.185604 
306.500000	0.060373  
307.000000	-0.050494 
307.500000	-0.437690 
308.000000	-1.082318 
308.500000	-1.845875 
309.000000	-2.072526 
309.500000	-2.014735 
310.000000	-1.815209 
310.500000	-1.213100 
311.000000	-0.462586 
311.500000	0.332079  
312.000000	0.973925  
312.500000	1.292111  
313.000000	1.360413  
313.500000	1.634763  
314.000000	2.082754  
314.500000	2.629692  
315.000000	3.152288  
315.500000	3.593805  
316.000000	3.941350  
316.500000	4.138039  
317.000000	4.182386  
317.500000	3.916015  
318.000000	3.684449  
318.500000	3.349905  
319.000000	3.073839  
319.500000	2.653439  
320.000000	2.458289  
320.500000	2.466040  
321.000000	2.325674  
321.500000	2.292033  
322.000000	2.369669  
322.500000	2.618381  
323.000000	2.750214  
323.500000	2.882241  
324.000000	2.855122  
324.500000	3.016234  
325.000000	3.461072  
325.500000	3.757313  
326.000000	3.995443  
326.500000	4.302781  
327.000000	4.767233  
327.500000	4.923450  
328.000000	4.761829  
328.500000	4.277739  
329.000000	3.629548  
329.500000	3.115191  
330.000000	2.572154  
330.500000	2.045400  
331.000000	1.775436  
331.500000	1.839384  
332.000000	1.944524  
332.500000	2.113253  
333.000000	2.312599  
333.500000	2.391192  
334.000000	2.473205  
334.500000	2.408467  
335.000000	2.242783  
335.500000	2.075697  
336.000000	1.884345  
336.500000	1.723062  
337.000000	1.723192  
337.500000	1.696954  
338.000000	1.662909  
338.500000	1.682352  
339.000000	1.673587  
339.500000	1.838222  
340.000000	2.088233  
340.500000	2.326110  
341.000000	2.629623  
341.500000	3.015721  
342.000000	3.387040  
342.500000	3.648678  
343.000000	3.819965  
343.500000	3.797431  
344.000000	3.711806  
344.500000	3.506774  
345.000000	3.337175  
345.500000	3.238170  
346.000000	3.105755  
346.500000	3.101491  
347.000000	3.230748  
347.500000	3.399001  
348.000000	3.565464  
348.500000	3.814124  
349.000000	3.940579  
349.500000	4.131194  
350.000000	4.309061  
350.500000	4.255222  
351.000000	4.142591  
351.500000	4.056999  
352.000000	3.887952  
352.500000	3.693840  
353.000000	3.597344  
353.500000	3.563683  
354.000000	3.619443  
354.500000	3.718424  
355.000000	3.771677  
355.500000	3.829490  
356.000000	3.893470  
356.500000	3.849763  
357.000000	3.675805  
357.500000	3.486100  
358.000000	3.356545  
358.500000	3.244303  
359.000000	3.211568  
359.500000	3.149596  
360.000000	3.247063  
360.500000	3.517494  
361.000000	3.839873  
361.500000	4.162295  
362.000000	4.444001  
362.500000	4.698030  
363.000000	4.925477  
363.500000	5.137405  
364.000000	5.045056  
364.500000	4.795954  
365.000000	4.593555  
365.500000	4.450761  
366.000000	4.296436  
366.500000	4.106588  
367.000000	3.894562  
367.500000	3.807316  
368.000000	3.943677  
368.500000	3.989180  
369.000000	3.886274  
369.500000	3.727451  
370.000000	3.710014  
370.500000	3.737156  
371.000000	3.711117  
371.500000	3.629566  
372.000000	3.633331  
372.500000	3.778237  
373.000000	4.014244  
373.500000	4.232681  
374.000000	4.264924  
374.500000	4.398610  
375.000000	4.538161  
375.500000	4.534040  
376.000000	4.447420  
376.500000	4.317444  
377.000000	4.163229  
377.500000	3.993224  
378.000000	3.866778  
378.500000	3.630859  
379.000000	3.534552  
379.500000	3.537475  
380.000000	3.550219  
380.500000	3.646097  
381.000000	3.838357  
381.500000	4.070159  
382.000000	4.289557  
382.500000	4.489823  
383.000000	4.549427  
383.500000	4.630679  
384.000000	4.650247  
384.500000	4.617899  
385.000000	4.585943  
385.500000	4.544773  
386.000000	4.522946  
386.500000	4.477714  
387.000000	4.463670  
387.500000	4.357980  
388.000000	4.268037  
388.500000	4.168689  
389.000000	4.057815  
389.500000	3.995103  
390.000000	3.946454  
390.500000	3.909417  
391.000000	3.856122  
391.500000	3.894266  
392.000000	3.922974  
392.500000	3.947160  
393.000000	3.986801  
393.500000	4.017336  
394.000000	4.078599  
394.500000	4.110411  
395.000000	4.118390  
395.500000	4.101244  
396.000000	4.089627  
396.500000	4.060043  
397.000000	3.973689  
397.500000	3.880116  
398.000000	3.773432  
398.500000	3.693081  
399.000000	3.609124  
399.500000	3.554688  
400.000000	3.511556  
400.500000	3.514760  
401.000000	3.577515  
401.500000	3.640444  
402.000000	3.652398  
402.500000	3.654535  
403.000000	3.655483  
403.500000	3.641115  
404.000000	3.640693  
404.500000	3.604011  
405.000000	3.577381  
405.500000	3.575187  
406.000000	3.572590  
406.500000	3.536431  
407.000000	3.468961  
407.500000	3.366081  
408.000000	3.276007  
408.500000	3.232909  
409.000000	3.190615  
409.500000	3.205057  
410.000000	3.267010  
410.500000	3.324805  
411.000000	3.376368  
411.500000	3.393157  
412.000000	3.366368  
412.500000	3.298830  
413.000000	3.226454  
413.500000	3.137205  
414.000000	3.088191  
414.500000	3.094513  
415.000000	3.097427  
415.500000	3.107910  
416.000000	3.103144  
416.500000	3.098251  
417.000000	3.057046  
417.500000	3.017694  
418.000000	2.934875  
418.500000	2.846556  
419.000000	2.800163  
419.500000	2.765198  
420.000000	2.743266  
420.500000	2.719426  
421.000000	2.698836  
421.500000	2.669678  
422.000000	2.648374  
422.500000	2.625892  
423.000000	2.606198  
423.500000	2.583872  
424.000000	2.575488  
424.500000	2.589830  
425.000000	2.629064  
425.500000	2.652675  
426.000000	2.675012  
426.500000	2.663415  
427.000000	2.609765  
427.500000	2.546737  
428.000000	2.442619  
428.500000	2.318920  
429.000000	2.210565  
429.500000	2.151814  
430.000000	2.136839  
430.500000	2.163517  
431.000000	2.212208  
431.500000	2.257573  
432.000000	2.339431  
432.500000	2.372388  
433.000000	2.368341  
433.500000	2.328273  
434.000000	2.263897  
434.500000	2.216663  
435.000000	2.175679  
435.500000	2.138737  
436.000000	2.095197  
436.500000	2.105168  
437.000000	2.107168  
437.500000	2.124428  
438.000000	2.142114  
438.500000	2.132592  
439.000000	2.133283  
439.500000	2.150523  
440.000000	2.162701  
440.500000	2.137578  
441.000000	2.119359  
441.500000	2.074558  
442.000000	2.023373  
442.500000	1.987080  
443.000000	1.949463  
443.500000	1.950303  
444.000000	2.013481  
444.500000	2.111147  

