PE FL                   SPECTRUM    ASCII       PEDS        1.60        
  -1
PPA0CD~1
23/10/10
16:15:10.00
23/10/10
16:15:10.00


444.500000
1









LS55
40.00
5.00
5.00
SCAN
1
20
100
100
0
500
0
2
0
1
7
ON
500 450 
1 0 0
#HDR
-1
-1
#GR
NM

0.00002384185791015625
0.0
250.000000
0.500000
390
8
15.291000
-5.158275
#DATA
250.000000	15.291000 
250.500000	9.523054  
251.000000	4.766051  
251.500000	0.839568  
252.000000	-1.846829 
252.500000	-3.847040 
253.000000	-4.805186 
253.500000	-5.158275 
254.000000	-4.867416 
254.500000	-4.713187 
255.000000	-4.749185 
255.500000	-4.375203 
256.000000	-4.025123 
256.500000	-3.448588 
257.000000	-2.935201 
257.500000	-2.673486 
258.000000	-2.668673 
258.500000	-2.788026 
259.000000	-2.869709 
259.500000	-3.073757 
260.000000	-3.026683 
260.500000	-2.911559 
261.000000	-2.730397 
261.500000	-2.341407 
262.000000	-2.041904 
262.500000	-1.970550 
263.000000	-2.232570 
263.500000	-2.624825 
264.000000	-3.318136 
264.500000	-3.682617 
265.000000	-3.873955 
265.500000	-3.886835 
266.000000	-3.771415 
266.500000	-3.334423 
267.000000	-2.746756 
267.500000	-2.343981 
268.000000	-2.134085 
268.500000	-2.478179 
269.000000	-2.877433 
269.500000	-3.209499 
270.000000	-3.421329 
270.500000	-3.588961 
271.000000	-3.444242 
271.500000	-3.072176 
272.000000	-2.736146 
272.500000	-2.262406 
273.000000	-2.219188 
273.500000	-2.269834 
274.000000	-2.349015 
274.500000	-2.505407 
275.000000	-2.779531 
275.500000	-3.025298 
276.000000	-3.169804 
276.500000	-3.456949 
277.000000	-3.503537 
277.500000	-3.709207 
278.000000	-3.906102 
278.500000	-4.129227 
279.000000	-4.386613 
279.500000	-4.428965 
280.000000	-4.381543 
280.500000	-4.173244 
281.000000	-4.014478 
281.500000	-3.716336 
282.000000	-3.316683 
282.500000	-2.706059 
283.000000	-2.225368 
283.500000	-2.020140 
284.000000	-1.630644 
284.500000	-1.599667 
285.000000	-1.581602 
285.500000	-1.627331 
286.000000	-1.822950 
286.500000	-1.701704 
287.000000	-1.149194 
287.500000	-0.470195 
288.000000	0.141741  
288.500000	1.026819  
289.000000	1.559753  
289.500000	2.074748  
290.000000	2.598304  
290.500000	2.663587  
291.000000	2.576279  
291.500000	2.394183  
292.000000	2.180880  
292.500000	1.811524  
293.000000	1.332787  
293.500000	0.456776  
294.000000	-0.333318 
294.500000	-0.876190 
295.000000	-1.139114 
295.500000	-1.042753 
296.000000	-0.870131 
296.500000	-0.442533 
297.000000	0.136456  
297.500000	0.329510  
298.000000	0.276820  
298.500000	0.081814  
299.000000	-0.406529 
299.500000	-0.786722 
300.000000	-0.751002 
300.500000	-0.706560 
301.000000	-0.474859 
301.500000	-0.312342 
302.000000	-0.416858 
302.500000	-0.454108 
303.000000	-0.294013 
303.500000	-0.390869 
304.000000	-0.606303 
304.500000	-0.415563 
305.000000	0.063329  
305.500000	0.889423  
306.000000	1.575795  
306.500000	1.835270  
307.000000	2.045073  
307.500000	2.442601  
308.000000	2.984016  
308.500000	3.268412  
309.000000	3.510534  
309.500000	3.691575  
310.000000	3.987880  
310.500000	4.289359  
311.000000	4.186467  
311.500000	3.763086  
312.000000	3.407889  
312.500000	3.468118  
313.000000	3.823888  
313.500000	4.364055  
314.000000	5.021101  
314.500000	5.610670  
315.000000	6.363893  
315.500000	6.847170  
316.000000	6.929376  
316.500000	6.745864  
317.000000	6.444020  
317.500000	6.271390  
318.000000	6.119604  
318.500000	6.246791  
319.000000	6.368123  
319.500000	6.675138  
320.000000	7.130563  
320.500000	7.554170  
321.000000	7.839550  
321.500000	7.926215  
322.000000	8.100600  
322.500000	8.011097  
323.000000	7.936340  
323.500000	7.772285  
324.000000	7.595630  
324.500000	7.464729  
325.000000	7.354149  
325.500000	7.094787  
326.000000	6.565674  
326.500000	6.098487  
327.000000	5.483398  
327.500000	5.039333  
328.000000	4.750425  
328.500000	4.654585  
329.000000	4.900227  
329.500000	5.536523  
330.000000	6.300614  
330.500000	6.897938  
331.000000	7.299346  
331.500000	7.326623  
332.000000	7.130128  
332.500000	6.813888  
333.000000	6.386242  
333.500000	5.951822  
334.000000	5.871048  
334.500000	6.041729  
335.000000	6.287784  
335.500000	6.464850  
336.000000	6.588973  
336.500000	6.612304  
337.000000	6.749107  
337.500000	6.915494  
338.000000	6.879411  
338.500000	7.092824  
339.000000	7.388552  
339.500000	7.643919  
340.000000	7.708160  
340.500000	7.801090  
341.000000	7.718227  
341.500000	7.643587  
342.000000	7.705940  
342.500000	7.705508  
343.000000	7.870534  
343.500000	8.111647  
344.000000	8.284870  
344.500000	8.303201  
345.000000	8.326958  
345.500000	8.237326  
346.000000	8.045741  
346.500000	7.926817  
347.000000	7.899304  
347.500000	7.941068  
348.000000	8.015773  
348.500000	8.077699  
349.000000	8.046498  
349.500000	8.015324  
350.000000	8.058400  
350.500000	8.040050  
351.000000	7.964010  
351.500000	8.016281  
352.000000	8.140290  
352.500000	8.289496  
353.000000	8.403680  
353.500000	8.535398  
354.000000	8.674490  
354.500000	8.897263  
355.000000	9.024330  
355.500000	9.055232  
356.000000	9.046567  
356.500000	9.004811  
357.000000	8.917981  
357.500000	8.676742  
358.000000	8.470984  
358.500000	8.296615  
359.000000	8.285108  
359.500000	8.279889  
360.000000	8.279754  
360.500000	8.223740  
361.000000	8.087892  
361.500000	7.944261  
362.000000	7.683698  
362.500000	7.456590  
363.000000	7.287422  
363.500000	7.332183  
364.000000	7.478530  
364.500000	7.687004  
365.000000	7.907770  
365.500000	8.045435  
366.000000	8.092511  
366.500000	8.025634  
367.000000	7.794792  
367.500000	7.515911  
368.000000	7.405168  
368.500000	7.363772  
369.000000	7.394744  
369.500000	7.548301  
370.000000	7.658858  
370.500000	7.786707  
371.000000	7.868605  
371.500000	7.798983  
372.000000	7.679843  
372.500000	7.669144  
373.000000	7.688902  
373.500000	7.737722  
374.000000	7.839624  
374.500000	7.928000  
375.000000	8.080578  
375.500000	8.227079  
376.000000	8.294100  
376.500000	8.298693  
377.000000	8.270715  
377.500000	8.260092  
378.000000	8.312064  
378.500000	8.367168  
379.000000	8.377863  
379.500000	8.435071  
380.000000	8.413973  
380.500000	8.294301  
381.000000	8.109305  
381.500000	7.841155  
382.000000	7.554167  
382.500000	7.305062  
383.000000	7.103621  
383.500000	6.952932  
384.000000	6.929941  
384.500000	6.996900  
385.000000	6.989956  
385.500000	7.007645  
386.000000	7.056992  
386.500000	7.060640  
387.000000	6.997121  
387.500000	6.912708  
388.000000	6.852079  
388.500000	6.899968  
389.000000	7.021494  
389.500000	7.068285  
390.000000	7.034494  
390.500000	7.083010  
391.000000	7.107763  
391.500000	7.070015  
392.000000	6.988519  
392.500000	6.922960  
393.000000	6.912579  
393.500000	6.938941  
394.000000	6.942037  
394.500000	6.868148  
395.000000	6.771995  
395.500000	6.634265  
396.000000	6.516464  
396.500000	6.373360  
397.000000	6.258974  
397.500000	6.247243  
398.000000	6.275044  
398.500000	6.341997  
399.000000	6.359331  
399.500000	6.350309  
400.000000	6.310567  
400.500000	6.259692  
401.000000	6.221631  
401.500000	6.216201  
402.000000	6.277426  
402.500000	6.374542  
403.000000	6.437572  
403.500000	6.458808  
404.000000	6.397771  
404.500000	6.269751  
405.000000	6.059044  
405.500000	5.829473  
406.000000	5.637169  
406.500000	5.510890  
407.000000	5.444301  
407.500000	5.384222  
408.000000	5.383670  
408.500000	5.475891  
409.000000	5.676145  
409.500000	5.808776  
410.000000	5.967509  
410.500000	6.142474  
411.000000	6.292234  
411.500000	6.376886  
412.000000	6.320325  
412.500000	6.185777  
413.000000	6.015224  
413.500000	5.860034  
414.000000	5.656059  
414.500000	5.452976  
415.000000	5.319673  
415.500000	5.244148  
416.000000	5.201952  
416.500000	5.179878  
417.000000	5.144698  
417.500000	5.154601  
418.000000	5.185597  
418.500000	5.220310  
419.000000	5.183239  
419.500000	5.151302  
420.000000	5.163056  
420.500000	5.120506  
421.000000	5.041155  
421.500000	4.911359  
422.000000	4.831511  
422.500000	4.757239  
423.000000	4.701194  
423.500000	4.589983  
424.000000	4.512429  
424.500000	4.528666  
425.000000	4.530038  
425.500000	4.515647  
426.000000	4.440903  
426.500000	4.407117  
427.000000	4.385559  
427.500000	4.330023  
428.000000	4.236192  
428.500000	4.144914  
429.000000	4.144445  
429.500000	4.164123  
430.000000	4.185951  
430.500000	4.176966  
431.000000	4.220090  
431.500000	4.292599  
432.000000	4.340604  
432.500000	4.350378  
433.000000	4.340449  
433.500000	4.362156  
434.000000	4.380169  
434.500000	4.365639  
435.000000	4.298508  
435.500000	4.256754  
436.000000	4.234671  
436.500000	4.218998  
437.000000	4.231347  
437.500000	4.252902  
438.000000	4.299716  
438.500000	4.372162  
439.000000	4.422734  
439.500000	4.428873  
440.000000	4.403107  
440.500000	4.367525  
441.000000	4.313818  
441.500000	4.273467  
442.000000	4.242257  
442.500000	4.208471  
443.000000	4.207587  
443.500000	4.208614  
444.000000	4.211636  
444.500000	4.191945  

