PE FL                   SPECTRUM    ASCII       PEDS        1.60        
  -1
PPA09D~1
23/10/10
16:13:08.00
23/10/10
16:13:08.00


444.500000
1









LS55
25.00
5.00
5.00
SCAN
1
20
100
100
0
500
0
2
0
1
7
ON
500 450 
1 0 0
#HDR
-1
-1
#GR
NM

0.00002384185791015625
0.0
250.000000
0.500000
390
8
5.952899
-5.217760
#DATA
250.000000	0.694999  
250.500000	0.369652  
251.000000	0.183214  
251.500000	-0.058242 
252.000000	-0.091073 
252.500000	-0.398544 
253.000000	-0.603371 
253.500000	-1.154366 
254.000000	-2.173792 
254.500000	-2.953195 
255.000000	-3.479860 
255.500000	-3.656472 
256.000000	-3.630951 
256.500000	-3.078130 
257.000000	-2.580355 
257.500000	-1.827559 
258.000000	-0.812616 
258.500000	-0.573893 
259.000000	-0.327401 
259.500000	-0.120914 
260.000000	-0.287688 
260.500000	-0.401161 
261.000000	-0.635958 
261.500000	-0.865738 
262.000000	-1.005773 
262.500000	-0.875505 
263.000000	-0.906736 
263.500000	-0.877760 
264.000000	-0.716919 
264.500000	-0.827797 
265.000000	-0.913770 
265.500000	-1.406298 
266.000000	-2.041994 
266.500000	-2.892688 
267.000000	-3.757104 
267.500000	-4.318610 
268.000000	-4.677966 
268.500000	-4.729467 
269.000000	-4.562443 
269.500000	-4.088785 
270.000000	-4.037439 
270.500000	-3.993050 
271.000000	-3.840259 
271.500000	-3.893153 
272.000000	-3.897163 
272.500000	-3.649118 
273.000000	-2.959104 
273.500000	-2.039524 
274.000000	-0.917859 
274.500000	-0.019428 
275.000000	0.571905  
275.500000	0.970794  
276.000000	0.793404  
276.500000	-0.039727 
277.000000	-1.200160 
277.500000	-2.305816 
278.000000	-3.347512 
278.500000	-4.191394 
279.000000	-4.839491 
279.500000	-5.217760 
280.000000	-4.932030 
280.500000	-4.219477 
281.000000	-3.602250 
281.500000	-2.916039 
282.000000	-2.088190 
282.500000	-1.289572 
283.000000	-0.826283 
283.500000	-0.850230 
284.000000	-1.023508 
284.500000	-1.391863 
285.000000	-1.584588 
285.500000	-1.744723 
286.000000	-1.695884 
286.500000	-1.422501 
287.000000	-0.911206 
287.500000	-0.456719 
288.000000	-0.436813 
288.500000	-0.685324 
289.000000	-1.375240 
289.500000	-2.024628 
290.000000	-2.758545 
290.500000	-3.386098 
291.000000	-3.799874 
291.500000	-3.744191 
292.000000	-3.288298 
292.500000	-2.699622 
293.000000	-2.052298 
293.500000	-1.810891 
294.000000	-1.741775 
294.500000	-1.823311 
295.000000	-2.142556 
295.500000	-2.523096 
296.000000	-2.809275 
296.500000	-2.959064 
297.000000	-2.669385 
297.500000	-2.335528 
298.000000	-2.125150 
298.500000	-1.871157 
299.000000	-1.512326 
299.500000	-1.195726 
300.000000	-0.976884 
300.500000	-0.938225 
301.000000	-1.142159 
301.500000	-1.272919 
302.000000	-1.539468 
302.500000	-1.684162 
303.000000	-1.886785 
303.500000	-2.031275 
304.000000	-1.905143 
304.500000	-1.344216 
305.000000	-0.779501 
305.500000	-0.294352 
306.000000	0.293952  
306.500000	0.602906  
307.000000	0.893180  
307.500000	0.982906  
308.000000	0.811734  
308.500000	0.695831  
309.000000	0.841442  
309.500000	0.919554  
310.000000	1.010090  
310.500000	1.042140  
311.000000	1.028643  
311.500000	1.190943  
312.000000	1.450423  
312.500000	1.502502  
313.000000	1.499196  
313.500000	1.642183  
314.000000	1.819757  
314.500000	1.977566  
315.000000	1.876171  
315.500000	1.823102  
316.000000	1.938838  
316.500000	2.296574  
317.000000	2.639001  
317.500000	3.031200  
318.000000	3.538789  
318.500000	4.120229  
319.000000	4.666439  
319.500000	4.867510  
320.000000	4.883804  
320.500000	4.653841  
321.000000	4.408594  
321.500000	4.108022  
322.000000	3.735041  
322.500000	3.550951  
323.000000	3.649002  
323.500000	3.976744  
324.000000	4.420656  
324.500000	4.983920  
325.000000	5.458689  
325.500000	5.769690  
326.000000	5.952899  
326.500000	5.818222  
327.000000	5.486837  
327.500000	5.080365  
328.000000	4.738820  
328.500000	4.465226  
329.000000	4.338228  
329.500000	4.210967  
330.000000	3.949433  
330.500000	3.805152  
331.000000	3.723426  
331.500000	3.604980  
332.000000	3.418545  
332.500000	3.485967  
333.000000	3.792926  
333.500000	4.161378  
334.000000	4.589087  
334.500000	4.662694  
335.000000	4.639374  
335.500000	4.567420  
336.000000	4.326130  
336.500000	3.954583  
337.000000	3.677551  
337.500000	3.492228  
338.000000	3.463604  
338.500000	3.615657  
339.000000	3.509599  
339.500000	3.476361  
340.000000	3.557182  
340.500000	3.701469  
341.000000	3.813341  
341.500000	3.972372  
342.000000	4.181586  
342.500000	4.407559  
343.000000	4.690223  
343.500000	4.666837  
344.000000	4.532318  
344.500000	4.524584  
345.000000	4.531107  
345.500000	4.546622  
346.000000	4.582090  
346.500000	4.698265  
347.000000	4.683273  
347.500000	4.660588  
348.000000	4.444034  
348.500000	4.136105  
349.000000	3.806421  
349.500000	3.478534  
350.000000	3.237480  
350.500000	3.112447  
351.000000	3.236929  
351.500000	3.301609  
352.000000	3.440399  
352.500000	3.646276  
353.000000	3.954976  
353.500000	4.147595  
354.000000	4.160116  
354.500000	4.183626  
355.000000	4.121712  
355.500000	4.167604  
356.000000	4.208141  
356.500000	4.263100  
357.000000	4.454294  
357.500000	4.831822  
358.000000	5.095770  
358.500000	5.192147  
359.000000	5.258776  
359.500000	5.192948  
360.000000	5.052663  
360.500000	4.885952  
361.000000	4.607863  
361.500000	4.495468  
362.000000	4.548421  
362.500000	4.564846  
363.000000	4.527134  
363.500000	4.522005  
364.000000	4.448234  
364.500000	4.390516  
365.000000	4.420199  
365.500000	4.384478  
366.000000	4.414721  
366.500000	4.560740  
367.000000	4.654168  
367.500000	4.764069  
368.000000	4.783279  
368.500000	4.663762  
369.000000	4.568087  
369.500000	4.546681  
370.000000	4.484546  
370.500000	4.359183  
371.000000	4.331735  
371.500000	4.272487  
372.000000	4.308004  
372.500000	4.413736  
373.000000	4.437378  
373.500000	4.536100  
374.000000	4.714058  
374.500000	4.904119  
375.000000	5.057706  
375.500000	5.201538  
376.000000	5.216419  
376.500000	5.252793  
377.000000	5.318906  
377.500000	5.314363  
378.000000	5.320819  
378.500000	5.352675  
379.000000	5.363866  
379.500000	5.362193  
380.000000	5.335728  
380.500000	5.229283  
381.000000	5.095665  
381.500000	4.988487  
382.000000	4.910122  
382.500000	4.852156  
383.000000	4.843930  
383.500000	4.905413  
384.000000	4.977671  
384.500000	5.052694  
385.000000	5.081059  
385.500000	5.091679  
386.000000	5.075780  
386.500000	5.085672  
387.000000	5.095896  
387.500000	5.062618  
388.000000	5.044582  
388.500000	4.998028  
389.000000	4.937614  
389.500000	4.862202  
390.000000	4.766750  
390.500000	4.664337  
391.000000	4.614716  
391.500000	4.586851  
392.000000	4.532391  
392.500000	4.476988  
393.000000	4.429180  
393.500000	4.386280  
394.000000	4.364044  
394.500000	4.344936  
395.000000	4.311008  
395.500000	4.320974  
396.000000	4.376522  
396.500000	4.447461  
397.000000	4.467074  
397.500000	4.450840  
398.000000	4.393394  
398.500000	4.335867  
399.000000	4.266327  
399.500000	4.194073  
400.000000	4.125180  
400.500000	4.081645  
401.000000	4.035302  
401.500000	3.967871  
402.000000	3.924636  
402.500000	3.867755  
403.000000	3.824098  
403.500000	3.830589  
404.000000	3.884594  
404.500000	3.906050  
405.000000	3.942846  
405.500000	3.954530  
406.000000	3.923345  
406.500000	3.899996  
407.000000	3.846864  
407.500000	3.757766  
408.000000	3.687697  
408.500000	3.696196  
409.000000	3.721157  
409.500000	3.783582  
410.000000	3.844942  
410.500000	3.861221  
411.000000	3.868922  
411.500000	3.857847  
412.000000	3.758737  
412.500000	3.620699  
413.000000	3.493577  
413.500000	3.383830  
414.000000	3.300227  
414.500000	3.271410  
415.000000	3.254990  
415.500000	3.301837  
416.000000	3.399635  
416.500000	3.453229  
417.000000	3.482362  
417.500000	3.472361  
418.000000	3.450209  
418.500000	3.401826  
419.000000	3.372303  
419.500000	3.324641  
420.000000	3.291507  
420.500000	3.293413  
421.000000	3.279514  
421.500000	3.290650  
422.000000	3.294497  
422.500000	3.288483  
423.000000	3.227575  
423.500000	3.180271  
424.000000	3.119007  
424.500000	3.055743  
425.000000	2.977710  
425.500000	2.872212  
426.000000	2.763753  
426.500000	2.644534  
427.000000	2.562749  
427.500000	2.469640  
428.000000	2.420659  
428.500000	2.427813  
429.000000	2.471764  
429.500000	2.515313  
430.000000	2.578390  
430.500000	2.643554  
431.000000	2.678911  
431.500000	2.718352  
432.000000	2.729082  
432.500000	2.749284  
433.000000	2.761636  
433.500000	2.745586  
434.000000	2.691067  
434.500000	2.621735  
435.000000	2.553355  
435.500000	2.462316  
436.000000	2.381560  
436.500000	2.325548  
437.000000	2.331903  
437.500000	2.387335  
438.000000	2.456677  
438.500000	2.513702  
439.000000	2.563607  
439.500000	2.592382  
440.000000	2.595288  
440.500000	2.580651  
441.000000	2.563409  
441.500000	2.565888  
442.000000	2.585144  
442.500000	2.621372  
443.000000	2.656034  
443.500000	2.703018  
444.000000	2.717977  
444.500000	2.693662  

