PE FL                   SPECTRUM    ASCII       PEDS        1.60        
  -1
PPA0AD~1
23/10/10
16:13:49.00
23/10/10
16:13:49.00


444.500000
1









LS55
30.00
5.00
5.00
SCAN
1
20
100
100
0
500
0
2
0
1
7
ON
500 450 
1 0 0
#HDR
-1
-1
#GR
NM

0.00002384185791015625
0.0
250.000000
0.500000
390
8
7.583411
-3.745368
#DATA
250.000000	0.000000  
250.500000	-0.993576 
251.000000	-1.866774 
251.500000	-2.033560 
252.000000	-2.068867 
252.500000	-1.665499 
253.000000	-1.246723 
253.500000	-0.466806 
254.000000	-0.280664 
254.500000	-0.318376 
255.000000	-0.399321 
255.500000	-0.304093 
256.000000	-0.167906 
256.500000	-0.202748 
257.000000	-0.308027 
257.500000	-0.637599 
258.000000	-0.514622 
258.500000	-0.834065 
259.000000	-1.417700 
259.500000	-1.890712 
260.000000	-2.036782 
260.500000	-1.898052 
261.000000	-1.604767 
261.500000	-1.355166 
262.000000	-1.421654 
262.500000	-1.427661 
263.000000	-1.536683 
263.500000	-2.033212 
264.000000	-2.851974 
264.500000	-3.337460 
265.000000	-3.712730 
265.500000	-3.745368 
266.000000	-3.504755 
266.500000	-3.101675 
267.000000	-2.620721 
267.500000	-2.271793 
268.000000	-2.032394 
268.500000	-2.073958 
269.000000	-1.900245 
269.500000	-1.664002 
270.000000	-1.244903 
270.500000	-0.594490 
271.000000	0.110100  
271.500000	0.438021  
272.000000	0.327914  
272.500000	0.057946  
273.000000	-0.576298 
273.500000	-1.150724 
274.000000	-1.609870 
274.500000	-1.868579 
275.000000	-1.847039 
275.500000	-1.441891 
276.000000	-1.020727 
276.500000	-0.879608 
277.000000	-1.244699 
277.500000	-1.689154 
278.000000	-2.139095 
278.500000	-2.551092 
279.000000	-2.759797 
279.500000	-2.766270 
280.000000	-2.544139 
280.500000	-2.158290 
281.000000	-1.677779 
281.500000	-1.598246 
282.000000	-1.815185 
282.500000	-2.206053 
283.000000	-2.506241 
283.500000	-2.546473 
284.000000	-2.304241 
284.500000	-1.904199 
285.000000	-1.364972 
285.500000	-0.705692 
286.000000	-0.332948 
286.500000	-0.050757 
287.000000	-0.174575 
287.500000	-0.489354 
288.000000	-0.777094 
288.500000	-0.966158 
289.000000	-1.011683 
289.500000	-1.085348 
290.000000	-1.368318 
290.500000	-1.701904 
291.000000	-1.851183 
291.500000	-2.364043 
292.000000	-2.991351 
292.500000	-3.271111 
293.000000	-3.247042 
293.500000	-2.912416 
294.000000	-2.420104 
294.500000	-2.027414 
295.000000	-1.809250 
295.500000	-1.507215 
296.000000	-1.535516 
296.500000	-1.895334 
297.000000	-2.104955 
297.500000	-2.262256 
298.000000	-2.322483 
298.500000	-2.333100 
299.000000	-2.379185 
299.500000	-2.223553 
300.000000	-1.848632 
300.500000	-1.623920 
301.000000	-1.685931 
301.500000	-1.677790 
302.000000	-1.633361 
302.500000	-1.661854 
303.000000	-1.888498 
303.500000	-2.076438 
304.000000	-2.010812 
304.500000	-1.842590 
305.000000	-1.673282 
305.500000	-1.511046 
306.000000	-1.227551 
306.500000	-0.877709 
307.000000	-0.517089 
307.500000	-0.551670 
308.000000	-0.538278 
308.500000	-0.330739 
309.000000	-0.068125 
309.500000	0.195096  
310.000000	0.490251  
310.500000	0.846530  
311.000000	1.357795  
311.500000	2.065436  
312.000000	2.507879  
312.500000	2.980406  
313.000000	3.621156  
313.500000	4.105501  
314.000000	4.401668  
314.500000	4.661935  
315.000000	4.896719  
315.500000	5.038860  
316.000000	5.253123  
316.500000	5.497093  
317.000000	5.687518  
317.500000	6.187887  
318.000000	6.639430  
318.500000	6.982701  
319.000000	7.309841  
319.500000	7.583411  
320.000000	7.464815  
320.500000	7.134747  
321.000000	6.758545  
321.500000	6.137017  
322.000000	5.774037  
322.500000	5.361157  
323.000000	5.087235  
323.500000	5.089118  
324.000000	5.439385  
324.500000	5.819754  
325.000000	6.220176  
325.500000	6.583425  
326.000000	6.592988  
326.500000	6.440187  
327.000000	5.917476  
327.500000	5.091328  
328.000000	4.280950  
328.500000	3.614226  
329.000000	3.067483  
329.500000	2.628041  
330.000000	2.477096  
330.500000	2.531683  
331.000000	2.723666  
331.500000	2.976113  
332.000000	3.105563  
332.500000	3.346769  
333.000000	3.469275  
333.500000	3.658735  
334.000000	3.693798  
334.500000	3.768013  
335.000000	3.925675  
335.500000	4.079233  
336.000000	4.251809  
336.500000	4.280807  
337.000000	4.607304  
337.500000	4.983337  
338.000000	5.346384  
338.500000	5.472715  
339.000000	5.432177  
339.500000	5.357672  
340.000000	5.256412  
340.500000	5.028276  
341.000000	4.617968  
341.500000	4.507790  
342.000000	4.578167  
342.500000	4.760920  
343.000000	4.924986  
343.500000	5.082097  
344.000000	5.219549  
344.500000	5.446619  
345.000000	5.599315  
345.500000	5.544235  
346.000000	5.547824  
346.500000	5.612902  
347.000000	5.701607  
347.500000	5.626846  
348.000000	5.382022  
348.500000	4.855772  
349.000000	4.385102  
349.500000	3.866729  
350.000000	3.456563  
350.500000	3.254300  
351.000000	3.258636  
351.500000	3.584302  
352.000000	4.090761  
352.500000	4.669419  
353.000000	5.095701  
353.500000	5.541574  
354.000000	5.812174  
354.500000	5.949787  
355.000000	5.868984  
355.500000	5.590251  
356.000000	5.399685  
356.500000	5.341358  
357.000000	5.369815  
357.500000	5.364686  
358.000000	5.509483  
358.500000	5.755568  
359.000000	6.058634  
359.500000	6.274199  
360.000000	6.367413  
360.500000	6.409564  
361.000000	6.397919  
361.500000	6.347305  
362.000000	6.229818  
362.500000	6.110473  
363.000000	6.107614  
363.500000	6.132507  
364.000000	6.176786  
364.500000	6.216760  
365.000000	6.267035  
365.500000	6.221357  
366.000000	6.146513  
366.500000	6.065641  
367.000000	5.974936  
367.500000	5.926176  
368.000000	5.843532  
368.500000	5.805733  
369.000000	5.826062  
369.500000	5.926196  
370.000000	5.978622  
370.500000	6.012640  
371.000000	6.101410  
371.500000	6.141268  
372.000000	6.206484  
372.500000	6.170377  
373.000000	6.137728  
373.500000	6.047302  
374.000000	5.931486  
374.500000	5.770056  
375.000000	5.627269  
375.500000	5.547468  
376.000000	5.430323  
376.500000	5.473050  
377.000000	5.582737  
377.500000	5.706881  
378.000000	5.766237  
378.500000	5.777928  
379.000000	5.739980  
379.500000	5.683361  
380.000000	5.590280  
380.500000	5.339948  
381.000000	5.143659  
381.500000	5.020228  
382.000000	4.994767  
382.500000	4.970946  
383.000000	5.015010  
383.500000	5.134792  
384.000000	5.314104  
384.500000	5.517195  
385.000000	5.603871  
385.500000	5.582293  
386.000000	5.503532  
386.500000	5.453871  
387.000000	5.348161  
387.500000	5.257812  
388.000000	5.225077  
388.500000	5.200532  
389.000000	5.209784  
389.500000	5.189087  
390.000000	5.179315  
390.500000	5.122065  
391.000000	5.099396  
391.500000	5.042660  
392.000000	5.052129  
392.500000	5.147053  
393.000000	5.257427  
393.500000	5.362317  
394.000000	5.355569  
394.500000	5.287566  
395.000000	5.202603  
395.500000	5.097134  
396.000000	4.920314  
396.500000	4.749999  
397.000000	4.635959  
397.500000	4.559054  
398.000000	4.554573  
398.500000	4.492738  
399.000000	4.417146  
399.500000	4.376308  
400.000000	4.408766  
400.500000	4.424931  
401.000000	4.471662  
401.500000	4.520245  
402.000000	4.532257  
402.500000	4.554118  
403.000000	4.525827  
403.500000	4.399705  
404.000000	4.260146  
404.500000	4.135198  
405.000000	4.065179  
405.500000	4.102121  
406.000000	4.213691  
406.500000	4.319404  
407.000000	4.436209  
407.500000	4.501878  
408.000000	4.485476  
408.500000	4.410146  
409.000000	4.235439  
409.500000	4.035776  
410.000000	3.870236  
410.500000	3.781248  
411.000000	3.721609  
411.500000	3.686471  
412.000000	3.688748  
412.500000	3.682706  
413.000000	3.715537  
413.500000	3.727573  
414.000000	3.746713  
414.500000	3.759850  
415.000000	3.778096  
415.500000	3.820240  
416.000000	3.836346  
416.500000	3.810399  
417.000000	3.752207  
417.500000	3.682919  
418.000000	3.647137  
418.500000	3.632713  
419.000000	3.627033  
419.500000	3.587917  
420.000000	3.580154  
420.500000	3.596197  
421.000000	3.587183  
421.500000	3.506176  
422.000000	3.417689  
422.500000	3.363624  
423.000000	3.331462  
423.500000	3.343175  
424.000000	3.327543  
424.500000	3.300399  
425.000000	3.337187  
425.500000	3.345095  
426.000000	3.290085  
426.500000	3.242967  
427.000000	3.154581  
427.500000	3.085712  
428.000000	3.041992  
428.500000	3.022712  
429.000000	2.995663  
429.500000	3.054055  
430.000000	3.133174  
430.500000	3.189146  
431.000000	3.282809  
431.500000	3.300375  
432.000000	3.309077  
432.500000	3.312917  
433.000000	3.296636  
433.500000	3.274829  
434.000000	3.291841  
434.500000	3.305948  
435.000000	3.328732  
435.500000	3.384639  
436.000000	3.377281  
436.500000	3.354254  
437.000000	3.368568  
437.500000	3.358927  
438.000000	3.335180  
438.500000	3.332411  
439.000000	3.341729  
439.500000	3.359412  
440.000000	3.385133  
440.500000	3.380232  
441.000000	3.356852  
441.500000	3.379245  
442.000000	3.403179  
442.500000	3.393147  
443.000000	3.387415  
443.500000	3.387120  
444.000000	3.393385  
444.500000	3.406678  

