PE FL                   SPECTRUM    ASCII       PEDS        1.60        
  -1
PP882B~1
23/10/10
15:14:40.00
23/10/10
15:14:40.00


444.500000
1









LS55
10.00
5.00
5.00
SCAN
1
20
100
100
0
500
0
2
0
1
7
ON
500 450 
1 0 0
#HDR
-1
-1
#GR
NM

0.00002384185791015625
0.0
250.000000
0.500000
390
8
3.040105
-5.000000
#DATA
250.000000	-5.000000 
250.500000	-4.179395 
251.000000	-3.513716 
251.500000	-3.356699 
252.000000	-3.017219 
252.500000	-2.608585 
253.000000	-2.218211 
253.500000	-1.811705 
254.000000	-1.271633 
254.500000	-0.633514 
255.000000	-0.173709 
255.500000	-0.180434 
256.000000	-0.871080 
256.500000	-1.519551 
257.000000	-1.973630 
257.500000	-2.147852 
258.000000	-1.774379 
258.500000	-1.180989 
259.000000	-0.181999 
259.500000	0.887689  
260.000000	1.469567  
260.500000	1.216628  
261.000000	0.427983  
261.500000	-0.884939 
262.000000	-2.250346 
262.500000	-3.117399 
263.000000	-3.626379 
263.500000	-3.633620 
264.000000	-3.211835 
264.500000	-2.392998 
265.000000	-1.552259 
265.500000	-0.909815 
266.000000	-0.786639 
266.500000	-1.148218 
267.000000	-1.627768 
267.500000	-2.115717 
268.000000	-2.698354 
268.500000	-3.454158 
269.000000	-3.994840 
269.500000	-4.429204 
270.000000	-4.573655 
270.500000	-4.676860 
271.000000	-4.697019 
271.500000	-4.384416 
272.000000	-3.643549 
272.500000	-2.605748 
273.000000	-1.599558 
273.500000	-0.784144 
274.000000	-0.261951 
274.500000	0.115731  
275.000000	0.108119  
275.500000	-0.222931 
276.000000	-0.707921 
276.500000	-1.228484 
277.000000	-1.548870 
277.500000	-1.511387 
278.000000	-1.365049 
278.500000	-1.389960 
279.000000	-1.329195 
279.500000	-1.231348 
280.000000	-1.172361 
280.500000	-1.267113 
281.000000	-1.562850 
281.500000	-1.886855 
282.000000	-1.973217 
282.500000	-2.075027 
283.000000	-2.290380 
283.500000	-2.571620 
284.000000	-2.821537 
284.500000	-2.870002 
285.000000	-2.936639 
285.500000	-2.927534 
286.000000	-2.806926 
286.500000	-2.649540 
287.000000	-2.422909 
287.500000	-2.274556 
288.000000	-2.267807 
288.500000	-2.266608 
289.000000	-2.042874 
289.500000	-1.898054 
290.000000	-1.603068 
290.500000	-1.216652 
291.000000	-0.731101 
291.500000	-0.197375 
292.000000	0.057589  
292.500000	-0.039447 
293.000000	-0.348911 
293.500000	-0.713584 
294.000000	-1.361865 
294.500000	-1.963295 
295.000000	-2.733814 
295.500000	-3.415995 
296.000000	-3.646226 
296.500000	-3.679517 
297.000000	-3.802041 
297.500000	-3.534325 
298.000000	-2.955144 
298.500000	-2.392067 
299.000000	-1.635141 
299.500000	-1.310529 
300.000000	-1.040774 
300.500000	-0.761470 
301.000000	-0.563522 
301.500000	-0.866274 
302.000000	-1.096345 
302.500000	-1.242434 
303.000000	-1.539203 
303.500000	-1.761728 
304.000000	-2.107863 
304.500000	-2.568443 
305.000000	-2.750164 
305.500000	-2.738904 
306.000000	-2.668890 
306.500000	-2.297847 
307.000000	-1.692719 
307.500000	-0.945006 
308.000000	-0.089841 
308.500000	0.680965  
309.000000	1.037314  
309.500000	1.403561  
310.000000	1.704786  
310.500000	1.830023  
311.000000	1.837632  
311.500000	1.762728  
312.000000	1.563960  
312.500000	1.451310  
313.000000	1.399873  
313.500000	1.052154  
314.000000	0.874067  
314.500000	0.831388  
315.000000	0.673269  
315.500000	0.411505  
316.000000	0.248909  
316.500000	0.137357  
317.000000	0.132528  
317.500000	0.126525  
318.000000	0.084768  
318.500000	0.135211  
319.000000	0.361836  
319.500000	0.421100  
320.000000	0.306632  
320.500000	0.168797  
321.000000	0.182682  
321.500000	0.166036  
322.000000	0.102325  
322.500000	0.087958  
323.000000	0.244358  
323.500000	0.449992  
324.000000	0.657206  
324.500000	0.774395  
325.000000	0.738830  
325.500000	0.858419  
326.000000	0.923298  
326.500000	0.986918  
327.000000	1.075590  
327.500000	1.228957  
328.000000	1.367341  
328.500000	1.612545  
329.000000	1.849562  
329.500000	1.982274  
330.000000	1.976289  
330.500000	1.781197  
331.000000	1.624737  
331.500000	1.412800  
332.000000	1.263878  
332.500000	1.153326  
333.000000	1.268716  
333.500000	1.494398  
334.000000	1.863883  
334.500000	2.229820  
335.000000	2.383488  
335.500000	2.467180  
336.000000	2.404329  
336.500000	2.272475  
337.000000	2.151233  
337.500000	2.052301  
338.000000	1.887215  
338.500000	1.784146  
339.000000	1.760234  
339.500000	1.726052  
340.000000	1.697157  
340.500000	1.572348  
341.000000	1.451867  
341.500000	1.432495  
342.000000	1.540862  
342.500000	1.578373  
343.000000	1.580578  
343.500000	1.551497  
344.000000	1.510728  
344.500000	1.504781  
345.000000	1.454587  
345.500000	1.300563  
346.000000	1.163998  
346.500000	1.154058  
347.000000	1.168678  
347.500000	1.173538  
348.000000	1.201825  
348.500000	1.299136  
349.000000	1.384100  
349.500000	1.460471  
350.000000	1.408143  
350.500000	1.311883  
351.000000	1.270657  
351.500000	1.268975  
352.000000	1.206917  
352.500000	1.176656  
353.000000	1.300905  
353.500000	1.393838  
354.000000	1.480825  
354.500000	1.476617  
355.000000	1.444177  
355.500000	1.536983  
356.000000	1.767847  
356.500000	1.940800  
357.000000	2.086116  
357.500000	2.426754  
358.000000	2.676211  
358.500000	2.788262  
359.000000	2.771105  
359.500000	2.564829  
360.000000	2.295196  
360.500000	2.069808  
361.000000	1.769190  
361.500000	1.375012  
362.000000	1.126504  
362.500000	1.011638  
363.000000	1.003844  
363.500000	1.109985  
364.000000	1.260252  
364.500000	1.473190  
365.000000	1.856784  
365.500000	2.302588  
366.000000	2.633553  
366.500000	2.847884  
367.000000	2.982753  
367.500000	3.040105  
368.000000	3.025418  
368.500000	2.843446  
369.000000	2.500432  
369.500000	2.168552  
370.000000	1.902672  
370.500000	1.635090  
371.000000	1.361661  
371.500000	1.151343  
372.000000	1.052683  
372.500000	1.123220  
373.000000	1.239485  
373.500000	1.365753  
374.000000	1.564387  
374.500000	1.749328  
375.000000	1.890164  
375.500000	1.981771  
376.000000	2.068013  
376.500000	2.055640  
377.000000	2.017061  
377.500000	1.912797  
378.000000	1.837300  
378.500000	1.912368  
379.000000	2.020954  
379.500000	2.131801  
380.000000	2.253045  
380.500000	2.432157  
381.000000	2.563154  
381.500000	2.597510  
382.000000	2.463189  
382.500000	2.222494  
383.000000	2.039511  
383.500000	1.874560  
384.000000	1.746072  
384.500000	1.677638  
385.000000	1.671886  
385.500000	1.722866  
386.000000	1.812877  
386.500000	1.897829  
387.000000	1.876568  
387.500000	1.856083  
388.000000	1.847302  
388.500000	1.835951  
389.000000	1.837260  
389.500000	1.782706  
390.000000	1.673658  
390.500000	1.568512  
391.000000	1.539211  
391.500000	1.449135  
392.000000	1.374689  
392.500000	1.367203  
393.000000	1.429480  
393.500000	1.549469  
394.000000	1.645308  
394.500000	1.670770  
395.000000	1.655882  
395.500000	1.700680  
396.000000	1.672683  
396.500000	1.588252  
397.000000	1.542724  
397.500000	1.527602  
398.000000	1.526433  
398.500000	1.548632  
399.000000	1.523809  
399.500000	1.488287  
400.000000	1.520954  
400.500000	1.550319  
401.000000	1.537965  
401.500000	1.552903  
402.000000	1.604637  
402.500000	1.628091  
403.000000	1.639736  
403.500000	1.594136  
404.000000	1.537374  
404.500000	1.506197  
405.000000	1.474668  
405.500000	1.446556  
406.000000	1.443178  
406.500000	1.480368  
407.000000	1.536090  
407.500000	1.555989  
408.000000	1.523837  
408.500000	1.501187  
409.000000	1.467250  
409.500000	1.387098  
410.000000	1.352289  
410.500000	1.342933  
411.000000	1.368180  
411.500000	1.460947  
412.000000	1.522687  
412.500000	1.541821  
413.000000	1.598663  
413.500000	1.650756  
414.000000	1.641174  
414.500000	1.641880  
415.000000	1.648949  
415.500000	1.667538  
416.000000	1.748123  
416.500000	1.799912  
417.000000	1.794854  
417.500000	1.806411  
418.000000	1.816198  
418.500000	1.808627  
419.000000	1.809046  
419.500000	1.796384  
420.000000	1.795933  
420.500000	1.800452  
421.000000	1.787192  
421.500000	1.768361  
422.000000	1.747314  
422.500000	1.690570  
423.000000	1.632187  
423.500000	1.601151  
424.000000	1.586983  
424.500000	1.584666  
425.000000	1.568717  
425.500000	1.538898  
426.000000	1.540626  
426.500000	1.552800  
427.000000	1.538594  
427.500000	1.494935  
428.000000	1.436303  
428.500000	1.403186  
429.000000	1.386686  
429.500000	1.347878  
430.000000	1.299187  
430.500000	1.305919  
431.000000	1.339870  
431.500000	1.386648  
432.000000	1.420678  
432.500000	1.428022  
433.000000	1.438676  
433.500000	1.444310  
434.000000	1.418799  
434.500000	1.378642  
435.000000	1.366462  
435.500000	1.370197  
436.000000	1.390060  
436.500000	1.421248  
437.000000	1.444900  
437.500000	1.487385  
438.000000	1.533886  
438.500000	1.554874  
439.000000	1.535953  
439.500000	1.516635  
440.000000	1.492194  
440.500000	1.455345  
441.000000	1.409333  
441.500000	1.354166  
442.000000	1.323462  
442.500000	1.305300  
443.000000	1.310226  
443.500000	1.318284  
444.000000	1.336921  
444.500000	1.368977  

