PE FL                   SPECTRUM    ASCII       PEDS        1.60        
  -1
PP885B~1
23/10/10
15:16:41.00
23/10/10
15:16:41.00


444.500000
1









LS55
25.00
5.00
5.00
SCAN
1
20
100
100
0
500
0
2
0
1
7
ON
500 450 
1 0 0
#HDR
-1
-1
#GR
NM

0.00002384185791015625
0.0
250.000000
0.500000
390
8
4.736519
-4.375882
#DATA
250.000000	3.484999  
250.500000	3.055261  
251.000000	2.553615  
251.500000	2.131371  
252.000000	1.631501  
252.500000	0.448077  
253.000000	-0.533997 
253.500000	-1.154206 
254.000000	-1.479373 
254.500000	-1.595156 
255.000000	-1.575698 
255.500000	-1.672614 
256.000000	-1.455084 
256.500000	-0.761670 
257.000000	-0.527967 
257.500000	-0.562409 
258.000000	-0.587899 
258.500000	-0.901492 
259.000000	-1.004181 
259.500000	-1.050915 
260.000000	-1.621806 
260.500000	-2.126624 
261.000000	-2.344627 
261.500000	-2.836691 
262.000000	-3.355918 
262.500000	-3.509298 
263.000000	-3.447651 
263.500000	-2.734709 
264.000000	-1.665811 
264.500000	-0.651375 
265.000000	0.363327  
265.500000	1.409837  
266.000000	1.821981  
266.500000	1.479324  
267.000000	0.742321  
267.500000	-0.273324 
268.000000	-1.171060 
268.500000	-1.877164 
269.000000	-2.507265 
269.500000	-2.948522 
270.000000	-3.016058 
270.500000	-2.992536 
271.000000	-3.132132 
271.500000	-3.425537 
272.000000	-3.777994 
272.500000	-4.160962 
273.000000	-4.213453 
273.500000	-4.013833 
274.000000	-3.642054 
274.500000	-3.201353 
275.000000	-2.724962 
275.500000	-2.264200 
276.000000	-1.913108 
276.500000	-1.688538 
277.000000	-2.024010 
277.500000	-2.547534 
278.000000	-3.053968 
278.500000	-3.552779 
279.000000	-4.036325 
279.500000	-4.373384 
280.000000	-4.375882 
280.500000	-3.923979 
281.000000	-3.152905 
281.500000	-2.530405 
282.000000	-1.901013 
282.500000	-0.922408 
283.000000	-0.025249 
283.500000	0.658211  
284.000000	1.147653  
284.500000	1.506955  
285.000000	1.801534  
285.500000	1.805501  
286.000000	1.242707  
286.500000	0.272323  
287.000000	-0.586195 
287.500000	-1.426921 
288.000000	-2.460839 
288.500000	-3.373782 
289.000000	-3.859830 
289.500000	-3.459563 
290.000000	-2.579110 
290.500000	-1.451890 
291.000000	-0.343544 
291.500000	0.706125  
292.000000	1.647545  
292.500000	1.869175  
293.000000	1.394163  
293.500000	0.500249  
294.000000	-0.235304 
294.500000	-0.698298 
295.000000	-0.749664 
295.500000	-0.542984 
296.000000	-0.208306 
296.500000	0.418297  
297.000000	0.859604  
297.500000	1.130868  
298.000000	1.084256  
298.500000	0.788197  
299.000000	0.436487  
299.500000	0.246105  
300.000000	-0.216793 
300.500000	-0.755295 
301.000000	-1.273977 
301.500000	-1.576232 
302.000000	-1.430640 
302.500000	-0.888356 
303.000000	-0.243012 
303.500000	0.903975  
304.000000	2.382592  
304.500000	3.724206  
305.000000	4.624721  
305.500000	4.736519  
306.000000	4.358923  
306.500000	3.807398  
307.000000	3.101632  
307.500000	1.966855  
308.000000	1.000030  
308.500000	0.484631  
309.000000	0.400621  
309.500000	0.482917  
310.000000	0.595155  
310.500000	0.791839  
311.000000	1.218631  
311.500000	1.967221  
312.000000	2.303437  
312.500000	2.284848  
313.000000	2.250106  
313.500000	2.439956  
314.000000	2.668997  
314.500000	2.717398  
315.000000	2.664744  
315.500000	2.537055  
316.000000	2.705212  
316.500000	2.697056  
317.000000	2.092798  
317.500000	1.469674  
318.000000	0.995964  
318.500000	0.642607  
319.000000	0.355358  
319.500000	0.209899  
320.000000	0.148278  
320.500000	0.318339  
321.000000	0.703800  
321.500000	0.774204  
322.000000	0.622044  
322.500000	0.439437  
323.000000	0.410727  
323.500000	0.398669  
324.000000	0.566703  
324.500000	0.725601  
325.000000	0.858505  
325.500000	1.179589  
326.000000	1.476439  
326.500000	1.483004  
327.000000	1.288537  
327.500000	1.086727  
328.000000	0.995069  
328.500000	1.106127  
329.000000	1.216395  
329.500000	1.227627  
330.000000	1.364669  
330.500000	1.667893  
331.000000	1.798370  
331.500000	1.644757  
332.000000	1.525852  
332.500000	1.228351  
333.000000	1.024743  
333.500000	0.708227  
334.000000	0.290065  
334.500000	-0.104713 
335.000000	-0.306917 
335.500000	-0.421845 
336.000000	-0.571187 
336.500000	-0.403610 
337.000000	-0.245660 
337.500000	-0.062788 
338.000000	0.018824  
338.500000	0.004434  
339.000000	-0.201223 
339.500000	-0.497216 
340.000000	-0.872971 
340.500000	-1.196524 
341.000000	-1.268028 
341.500000	-1.282972 
342.000000	-1.285797 
342.500000	-1.296325 
343.000000	-1.073308 
343.500000	-0.907532 
344.000000	-0.745320 
344.500000	-0.786607 
345.000000	-0.748442 
345.500000	-0.614422 
346.000000	-0.388626 
346.500000	-0.243794 
347.000000	-0.056165 
347.500000	0.217541  
348.000000	0.421167  
348.500000	0.586675  
349.000000	0.470928  
349.500000	0.329656  
350.000000	0.215977  
350.500000	0.141712  
351.000000	-0.000595 
351.500000	0.043753  
352.000000	0.277165  
352.500000	0.578618  
353.000000	0.942351  
353.500000	1.223558  
354.000000	1.389567  
354.500000	1.410303  
355.000000	1.308143  
355.500000	0.964356  
356.000000	0.678126  
356.500000	0.487657  
357.000000	0.368566  
357.500000	0.312955  
358.000000	0.436966  
358.500000	0.644852  
359.000000	0.860307  
359.500000	1.155347  
360.000000	1.345258  
360.500000	1.479000  
361.000000	1.543143  
361.500000	1.444204  
362.000000	1.122906  
362.500000	0.876266  
363.000000	0.691874  
363.500000	0.505015  
364.000000	0.455881  
364.500000	0.517851  
365.000000	0.780768  
365.500000	1.153199  
366.000000	1.483681  
366.500000	1.569721  
367.000000	1.599351  
367.500000	1.550094  
368.000000	1.320924  
368.500000	1.049257  
369.000000	0.845310  
369.500000	0.746212  
370.000000	0.786514  
370.500000	0.889786  
371.000000	0.955858  
371.500000	1.113593  
372.000000	1.219729  
372.500000	1.226541  
373.000000	1.214503  
373.500000	1.236037  
374.000000	1.247660  
374.500000	1.349846  
375.000000	1.451081  
375.500000	1.507926  
376.000000	1.633266  
376.500000	1.639961  
377.000000	1.570555  
377.500000	1.501347  
378.000000	1.416713  
378.500000	1.265648  
379.000000	1.145761  
379.500000	1.055487  
380.000000	0.877023  
380.500000	0.761572  
381.000000	0.612603  
381.500000	0.488161  
382.000000	0.455215  
382.500000	0.490815  
383.000000	0.582448  
383.500000	0.717538  
384.000000	0.954951  
384.500000	1.157133  
385.000000	1.327309  
385.500000	1.445632  
386.000000	1.479989  
386.500000	1.407626  
387.000000	1.304457  
387.500000	1.185951  
388.000000	1.008998  
388.500000	0.838228  
389.000000	0.715953  
389.500000	0.636436  
390.000000	0.639174  
390.500000	0.674178  
391.000000	0.711196  
391.500000	0.804114  
392.000000	0.935720  
392.500000	1.022490  
393.000000	1.019246  
393.500000	1.007765  
394.000000	0.982137  
394.500000	1.009573  
395.000000	1.016649  
395.500000	1.003109  
396.000000	0.987584  
396.500000	0.983342  
397.000000	0.986328  
397.500000	0.982038  
398.000000	0.975054  
398.500000	0.905561  
399.000000	0.867493  
399.500000	0.838011  
400.000000	0.854906  
400.500000	0.859678  
401.000000	0.851236  
401.500000	0.886133  
402.000000	0.961977  
402.500000	1.067672  
403.000000	1.120821  
403.500000	1.155829  
404.000000	1.189236  
404.500000	1.250477  
405.000000	1.282036  
405.500000	1.245842  
406.000000	1.180159  
406.500000	1.070027  
407.000000	0.962501  
407.500000	0.853620  
408.000000	0.740565  
408.500000	0.672029  
409.000000	0.674076  
409.500000	0.724655  
410.000000	0.821678  
410.500000	0.942783  
411.000000	1.053261  
411.500000	1.152220  
412.000000	1.212128  
412.500000	1.232738  
413.000000	1.244750  
413.500000	1.235958  
414.000000	1.218403  
414.500000	1.216219  
415.000000	1.190939  
415.500000	1.134450  
416.000000	1.068006  
416.500000	0.984128  
417.000000	0.891922  
417.500000	0.842638  
418.000000	0.830424  
418.500000	0.863036  
419.000000	0.950438  
419.500000	1.049451  
420.000000	1.124659  
420.500000	1.180895  
421.000000	1.187602  
421.500000	1.141843  
422.000000	1.040058  
422.500000	0.929447  
423.000000	0.814917  
423.500000	0.738243  
424.000000	0.713068  
424.500000	0.730002  
425.000000	0.785646  
425.500000	0.858463  
426.000000	0.963012  
426.500000	1.001512  
427.000000	1.012518  
427.500000	0.984787  
428.000000	0.941940  
428.500000	0.886188  
429.000000	0.816239  
429.500000	0.740866  
430.000000	0.664942  
430.500000	0.660730  
431.000000	0.664856  
431.500000	0.699435  
432.000000	0.743583  
432.500000	0.799648  
433.000000	0.853591  
433.500000	0.892441  
434.000000	0.911621  
434.500000	0.901803  
435.000000	0.876928  
435.500000	0.862776  
436.000000	0.859808  
436.500000	0.855038  
437.000000	0.862322  
437.500000	0.882602  
438.000000	0.896298  
438.500000	0.901994  
439.000000	0.889406  
439.500000	0.847596  
440.000000	0.803659  
440.500000	0.763768  
441.000000	0.737655  
441.500000	0.730437  
442.000000	0.755769  
442.500000	0.783114  
443.000000	0.807479  
443.500000	0.816646  
444.000000	0.796889  
444.500000	0.753103  

