PE FL                   SPECTRUM    ASCII       PEDS        1.60        
  -1
PP887B~1
23/10/10
15:18:02.00
23/10/10
15:18:02.00


444.500000
1









LS55
35.00
5.00
5.00
SCAN
1
20
100
100
0
500
0
2
0
1
7
ON
500 450 
1 0 0
#HDR
-1
-1
#GR
NM

0.00002384185791015625
0.0
250.000000
0.500000
390
8
5.840525
-3.914892
#DATA
250.000000	0.000000  
250.500000	-0.324328 
251.000000	-0.380168 
251.500000	-0.689936 
252.000000	-1.088118 
252.500000	-1.368320 
253.000000	-1.861375 
253.500000	-2.472203 
254.000000	-2.642875 
254.500000	-2.781969 
255.000000	-2.877767 
255.500000	-2.699076 
256.000000	-2.694438 
256.500000	-2.642303 
257.000000	-2.517197 
257.500000	-2.527358 
258.000000	-2.967788 
258.500000	-3.182415 
259.000000	-3.288797 
259.500000	-3.352714 
260.000000	-3.122704 
260.500000	-2.948569 
261.000000	-2.776303 
261.500000	-2.602935 
262.000000	-2.393260 
262.500000	-2.718749 
263.000000	-3.044484 
263.500000	-3.291617 
264.000000	-3.673441 
264.500000	-3.762051 
265.000000	-3.621516 
265.500000	-3.327403 
266.000000	-2.977705 
266.500000	-2.664377 
267.000000	-2.642123 
267.500000	-2.993109 
268.000000	-3.277510 
268.500000	-3.698554 
269.000000	-3.914892 
269.500000	-3.827833 
270.000000	-3.467856 
270.500000	-2.794446 
271.000000	-1.954899 
271.500000	-1.080602 
272.000000	-0.833873 
272.500000	-0.736067 
273.000000	-0.767712 
273.500000	-0.846500 
274.000000	-0.921136 
274.500000	-1.120583 
275.000000	-1.138939 
275.500000	-1.139062 
276.000000	-0.983506 
276.500000	-1.229046 
277.000000	-1.738733 
277.500000	-2.275235 
278.000000	-2.483944 
278.500000	-2.556169 
279.000000	-2.616147 
279.500000	-2.243070 
280.000000	-1.836634 
280.500000	-1.446332 
281.000000	-1.256800 
281.500000	-1.155507 
282.000000	-1.195359 
282.500000	-0.827093 
283.000000	-0.357884 
283.500000	0.122913  
284.000000	0.931672  
284.500000	1.505624  
285.000000	1.676058  
285.500000	1.602957  
286.000000	1.312688  
286.500000	0.799460  
287.000000	0.342939  
287.500000	-0.116691 
288.000000	-0.383814 
288.500000	-0.062806 
289.000000	0.343534  
289.500000	0.511154  
290.000000	0.423851  
290.500000	-0.005189 
291.000000	-0.391502 
291.500000	-0.713485 
292.000000	-1.010157 
292.500000	-1.349593 
293.000000	-1.345675 
293.500000	-1.166120 
294.000000	-0.893333 
294.500000	-0.685759 
295.000000	-0.596386 
295.500000	-0.343575 
296.000000	0.098497  
296.500000	0.560505  
297.000000	0.871278  
297.500000	0.918086  
298.000000	0.563611  
298.500000	0.339862  
299.000000	-0.073690 
299.500000	-0.481752 
300.000000	-0.977317 
300.500000	-0.945602 
301.000000	-0.410746 
301.500000	0.619224  
302.000000	1.937152  
302.500000	2.893358  
303.000000	3.849227  
303.500000	4.470542  
304.000000	4.837682  
304.500000	4.449232  
305.000000	4.080396  
305.500000	3.616306  
306.000000	3.291553  
306.500000	3.183571  
307.000000	2.733501  
307.500000	2.371218  
308.000000	2.181586  
308.500000	2.193482  
309.000000	1.820975  
309.500000	1.750186  
310.000000	1.832844  
310.500000	2.281373  
311.000000	3.257917  
311.500000	4.194032  
312.000000	4.965843  
312.500000	5.525551  
313.000000	5.840525  
313.500000	5.597397  
314.000000	5.189142  
314.500000	4.468584  
315.000000	3.681430  
315.500000	3.263922  
316.000000	3.007931  
316.500000	2.802922  
317.000000	2.682395  
317.500000	2.787458  
318.000000	2.889541  
318.500000	2.984918  
319.000000	2.927978  
319.500000	2.612446  
320.000000	2.407652  
320.500000	2.254096  
321.000000	2.020242  
321.500000	1.806263  
322.000000	1.851666  
322.500000	2.077499  
323.000000	2.412711  
323.500000	2.907962  
324.000000	3.253497  
324.500000	3.673422  
325.000000	3.968239  
325.500000	4.146113  
326.000000	4.293639  
326.500000	4.411533  
327.000000	4.563658  
327.500000	4.610755  
328.000000	4.773799  
328.500000	4.734825  
329.000000	4.538966  
329.500000	4.190904  
330.000000	3.815440  
330.500000	3.482298  
331.000000	3.123475  
331.500000	2.879421  
332.000000	2.529388  
332.500000	2.369053  
333.000000	2.238496  
333.500000	2.086724  
334.000000	2.006112  
334.500000	2.092387  
335.000000	2.208973  
335.500000	2.295094  
336.000000	2.526287  
336.500000	2.685353  
337.000000	2.831471  
337.500000	2.908597  
338.000000	2.842764  
338.500000	2.795381  
339.000000	2.851016  
339.500000	2.961122  
340.000000	2.986227  
340.500000	2.933941  
341.000000	2.803820  
341.500000	2.616494  
342.000000	2.387048  
342.500000	2.117387  
343.000000	1.899036  
343.500000	1.628672  
344.000000	1.473615  
344.500000	1.399827  
345.000000	1.330225  
345.500000	1.152885  
346.000000	0.935397  
346.500000	0.794996  
347.000000	0.828627  
347.500000	0.973947  
348.000000	1.033313  
348.500000	1.116162  
349.000000	1.293252  
349.500000	1.512758  
350.000000	1.549435  
350.500000	1.453970  
351.000000	1.344080  
351.500000	1.349807  
352.000000	1.446570  
352.500000	1.509260  
353.000000	1.534612  
353.500000	1.561261  
354.000000	1.623085  
354.500000	1.550970  
355.000000	1.325039  
355.500000	1.064925  
356.000000	0.851931  
356.500000	0.699748  
357.000000	0.491791  
357.500000	0.338145  
358.000000	0.283540  
358.500000	0.360038  
359.000000	0.433039  
359.500000	0.471360  
360.000000	0.541322  
360.500000	0.607782  
361.000000	0.680984  
361.500000	0.684534  
362.000000	0.648013  
362.500000	0.611526  
363.000000	0.564393  
363.500000	0.515871  
364.000000	0.430324  
364.500000	0.445941  
365.000000	0.492101  
365.500000	0.576394  
366.000000	0.762832  
366.500000	0.981184  
367.000000	1.223731  
367.500000	1.408838  
368.000000	1.512300  
368.500000	1.466556  
369.000000	1.409962  
369.500000	1.256094  
370.000000	1.011442  
370.500000	0.841557  
371.000000	0.741294  
371.500000	0.735269  
372.000000	0.737049  
372.500000	0.778346  
373.000000	0.772776  
373.500000	0.860352  
374.000000	0.961554  
374.500000	1.049619  
375.000000	1.173421  
375.500000	1.328535  
376.000000	1.516741  
376.500000	1.616227  
377.000000	1.701929  
377.500000	1.681351  
378.000000	1.565832  
378.500000	1.412244  
379.000000	1.233954  
379.500000	1.087728  
380.000000	1.014746  
380.500000	1.039770  
381.000000	1.004942  
381.500000	1.021093  
382.000000	1.041734  
382.500000	0.979784  
383.000000	0.893014  
383.500000	0.819921  
384.000000	0.778342  
384.500000	0.821824  
385.000000	0.978013  
385.500000	1.115949  
386.000000	1.231885  
386.500000	1.365163  
387.000000	1.399582  
387.500000	1.314743  
388.000000	1.187921  
388.500000	1.028014  
389.000000	0.907021  
389.500000	0.844367  
390.000000	0.887740  
390.500000	0.901401  
391.000000	0.942865  
391.500000	0.939706  
392.000000	0.856503  
392.500000	0.798334  
393.000000	0.723100  
393.500000	0.668534  
394.000000	0.600586  
394.500000	0.608433  
395.000000	0.634425  
395.500000	0.714361  
396.000000	0.824233  
396.500000	0.910808  
397.000000	0.993181  
397.500000	1.076844  
398.000000	1.169232  
398.500000	1.242826  
399.000000	1.284434  
399.500000	1.250195  
400.000000	1.229904  
400.500000	1.234385  
401.000000	1.244335  
401.500000	1.190596  
402.000000	1.146945  
402.500000	1.115907  
403.000000	1.162375  
403.500000	1.225467  
404.000000	1.232418  
404.500000	1.235027  
405.000000	1.215270  
405.500000	1.208018  
406.000000	1.094445  
406.500000	0.949507  
407.000000	0.803707  
407.500000	0.679949  
408.000000	0.601139  
408.500000	0.570307  
409.000000	0.660769  
409.500000	0.764885  
410.000000	0.885948  
410.500000	0.957578  
411.000000	0.978958  
411.500000	0.988132  
412.000000	0.954888  
412.500000	0.879301  
413.000000	0.811019  
413.500000	0.814483  
414.000000	0.811857  
414.500000	0.798736  
415.000000	0.780888  
415.500000	0.748462  
416.000000	0.753919  
416.500000	0.769521  
417.000000	0.779449  
417.500000	0.787338  
418.000000	0.835310  
418.500000	0.901887  
419.000000	0.941840  
419.500000	0.972458  
420.000000	0.982906  
420.500000	0.981608  
421.000000	0.940833  
421.500000	0.897907  
422.000000	0.859497  
422.500000	0.816007  
423.000000	0.798361  
423.500000	0.780716  
424.000000	0.783952  
424.500000	0.793862  
425.000000	0.802228  
425.500000	0.785423  
426.000000	0.784052  
426.500000	0.783782  
427.000000	0.761429  
427.500000	0.741610  
428.000000	0.711783  
428.500000	0.690742  
429.000000	0.676018  
429.500000	0.670286  
430.000000	0.642965  
430.500000	0.610875  
431.000000	0.590800  
431.500000	0.543023  
432.000000	0.489697  
432.500000	0.461427  
433.000000	0.443741  
433.500000	0.432686  
434.000000	0.448273  
434.500000	0.488062  
435.000000	0.549077  
435.500000	0.627821  
436.000000	0.684026  
436.500000	0.713807  
437.000000	0.762341  
437.500000	0.782136  
438.000000	0.759275  
438.500000	0.710311  
439.000000	0.666461  
439.500000	0.616538  
440.000000	0.574875  
440.500000	0.538107  
441.000000	0.507407  
441.500000	0.531117  
442.000000	0.550816  
442.500000	0.564798  
443.000000	0.580521  
443.500000	0.606259  
444.000000	0.621336  
444.500000	0.611684  

