PE FL                   SPECTRUM    ASCII       PEDS        1.60        
  -1
PP884B~1
23/10/10
15:16:01.00
23/10/10
15:16:01.00


444.500000
1









LS55
20.00
5.00
5.00
SCAN
1
20
100
100
0
500
0
2
0
1
7
ON
500 450 
1 0 0
#HDR
-1
-1
#GR
NM

0.00002384185791015625
0.0
250.000000
0.500000
390
8
1.794785
-4.263909
#DATA
250.000000	-0.702000 
250.500000	-2.119876 
251.000000	-2.957415 
251.500000	-3.448079 
252.000000	-3.474295 
252.500000	-3.181725 
253.000000	-2.667877 
253.500000	-1.771015 
254.000000	-0.633068 
254.500000	0.204055  
255.000000	0.405259  
255.500000	0.413970  
256.000000	0.101487  
256.500000	-0.495789 
257.000000	-1.428128 
257.500000	-2.576028 
258.000000	-3.336764 
258.500000	-3.714199 
259.000000	-3.862497 
259.500000	-4.044937 
260.000000	-4.240081 
260.500000	-4.089026 
261.000000	-3.499091 
261.500000	-2.864969 
262.000000	-2.281721 
262.500000	-1.566984 
263.000000	-0.872780 
263.500000	-0.376420 
264.000000	-0.030341 
264.500000	-0.347728 
265.000000	-0.979500 
265.500000	-1.665346 
266.000000	-2.480112 
266.500000	-2.975155 
267.000000	-3.112631 
267.500000	-2.979896 
268.000000	-2.724033 
268.500000	-2.147604 
269.000000	-1.783825 
269.500000	-1.680029 
270.000000	-1.754866 
270.500000	-2.139852 
271.000000	-2.558190 
271.500000	-2.832340 
272.000000	-3.240899 
272.500000	-3.618614 
273.000000	-3.744223 
273.500000	-3.631341 
274.000000	-3.300334 
274.500000	-2.892973 
275.000000	-2.763008 
275.500000	-2.643442 
276.000000	-2.427525 
276.500000	-2.464396 
277.000000	-2.640403 
277.500000	-2.700981 
278.000000	-2.539998 
278.500000	-2.404968 
279.000000	-1.988694 
279.500000	-2.075438 
280.000000	-2.031812 
280.500000	-1.742789 
281.000000	-1.538678 
281.500000	-1.249104 
282.000000	-0.758262 
282.500000	-0.089441 
283.000000	0.412639  
283.500000	1.200171  
284.000000	1.148718  
284.500000	0.881304  
285.000000	0.370792  
285.500000	-0.444281 
286.000000	-1.303534 
286.500000	-2.046549 
287.000000	-2.671286 
287.500000	-3.394805 
288.000000	-3.591742 
288.500000	-3.951966 
289.000000	-4.200814 
289.500000	-4.263909 
290.000000	-4.239586 
290.500000	-3.942177 
291.000000	-3.314292 
291.500000	-2.637007 
292.000000	-2.198194 
292.500000	-1.883004 
293.000000	-1.730502 
293.500000	-1.723812 
294.000000	-1.839788 
294.500000	-2.118975 
295.000000	-2.481020 
295.500000	-2.712003 
296.000000	-2.762936 
296.500000	-2.669501 
297.000000	-2.594591 
297.500000	-2.481719 
298.000000	-2.267238 
298.500000	-1.762581 
299.000000	-1.336718 
299.500000	-0.924472 
300.000000	-0.622385 
300.500000	-0.497723 
301.000000	-0.359128 
301.500000	-0.477232 
302.000000	-1.064006 
302.500000	-1.802014 
303.000000	-2.127219 
303.500000	-2.376866 
304.000000	-2.331174 
304.500000	-2.095279 
305.000000	-1.873308 
305.500000	-1.449052 
306.000000	-0.814683 
306.500000	-0.488784 
307.000000	-0.448176 
307.500000	-0.470258 
308.000000	-0.606327 
308.500000	-0.823756 
309.000000	-1.172636 
309.500000	-1.766178 
310.000000	-2.161146 
310.500000	-2.213202 
311.000000	-2.188007 
311.500000	-2.101069 
312.000000	-2.022411 
312.500000	-1.810166 
313.000000	-1.309297 
313.500000	-0.838167 
314.000000	-0.614297 
314.500000	-0.309396 
315.000000	-0.008879 
315.500000	0.288656  
316.000000	0.654291  
316.500000	0.849053  
317.000000	0.683502  
317.500000	0.661990  
318.000000	0.580504  
318.500000	0.289636  
319.000000	0.044978  
319.500000	-0.126412 
320.000000	-0.253332 
320.500000	-0.071563 
321.000000	0.339992  
321.500000	0.451497  
322.000000	0.557524  
322.500000	0.735380  
323.000000	0.855158  
323.500000	0.817183  
324.000000	0.818721  
324.500000	0.608935  
325.000000	0.598763  
325.500000	0.847971  
326.000000	1.040846  
326.500000	1.140056  
327.000000	1.458823  
327.500000	1.727329  
328.000000	1.727855  
328.500000	1.725197  
329.000000	1.485907  
329.500000	1.170100  
330.000000	0.953491  
330.500000	0.762290  
331.000000	0.390238  
331.500000	0.291202  
332.000000	0.323679  
332.500000	0.332170  
333.000000	0.491947  
333.500000	0.645631  
334.000000	0.705997  
334.500000	0.737719  
335.000000	0.885338  
335.500000	0.873217  
336.000000	0.895519  
336.500000	0.898409  
337.000000	0.890254  
337.500000	0.923322  
338.000000	1.020470  
338.500000	1.038796  
339.000000	0.877760  
339.500000	0.891157  
340.000000	0.983977  
340.500000	1.112351  
341.000000	1.241741  
341.500000	1.365417  
342.000000	1.452432  
342.500000	1.518775  
343.000000	1.480300  
343.500000	1.097956  
344.000000	0.701759  
344.500000	0.478029  
345.000000	0.357831  
345.500000	0.290522  
346.000000	0.275308  
346.500000	0.341503  
347.000000	0.493836  
347.500000	0.605152  
348.000000	0.573764  
348.500000	0.462825  
349.000000	0.417073  
349.500000	0.398169  
350.000000	0.340578  
350.500000	0.236569  
351.000000	0.195722  
351.500000	0.308467  
352.000000	0.313048  
352.500000	0.264861  
353.000000	0.272442  
353.500000	0.326220  
354.000000	0.472593  
354.500000	0.534833  
355.000000	0.504989  
355.500000	0.461901  
356.000000	0.556305  
356.500000	0.533774  
357.000000	0.351327  
357.500000	0.281037  
358.000000	0.257789  
358.500000	0.354286  
359.000000	0.404352  
359.500000	0.457306  
360.000000	0.480255  
360.500000	0.580271  
361.000000	0.630769  
361.500000	0.505722  
362.000000	0.438463  
362.500000	0.485742  
363.000000	0.662415  
363.500000	0.853942  
364.000000	1.109933  
364.500000	1.389620  
365.000000	1.590988  
365.500000	1.716457  
366.000000	1.670937  
366.500000	1.523859  
367.000000	1.395711  
367.500000	1.240848  
368.000000	1.048486  
368.500000	0.959433  
369.000000	0.937523  
369.500000	0.980724  
370.000000	1.038776  
370.500000	1.093314  
371.000000	1.165112  
371.500000	1.243584  
372.000000	1.337411  
372.500000	1.311776  
373.000000	1.269982  
373.500000	1.127160  
374.000000	0.976560  
374.500000	0.817345  
375.000000	0.590444  
375.500000	0.481089  
376.000000	0.468841  
376.500000	0.655440  
377.000000	0.872718  
377.500000	1.178888  
378.000000	1.420053  
378.500000	1.592258  
379.000000	1.690801  
379.500000	1.573044  
380.000000	1.406710  
380.500000	1.150472  
381.000000	0.974188  
381.500000	0.850679  
382.000000	0.874211  
382.500000	1.006213  
383.000000	1.160399  
383.500000	1.339754  
384.000000	1.386725  
384.500000	1.395562  
385.000000	1.326838  
385.500000	1.199059  
386.000000	1.060381  
386.500000	0.988962  
387.000000	0.988549  
387.500000	1.019729  
388.000000	1.069826  
388.500000	1.046657  
389.000000	1.012707  
389.500000	1.004030  
390.000000	0.952951  
390.500000	0.879915  
391.000000	0.870430  
391.500000	0.911755  
392.000000	1.020730  
392.500000	1.142848  
393.000000	1.221089  
393.500000	1.247686  
394.000000	1.306647  
394.500000	1.285499  
395.000000	1.239444  
395.500000	1.202773  
396.000000	1.197846  
396.500000	1.246109  
397.000000	1.310484  
397.500000	1.360175  
398.000000	1.358579  
398.500000	1.414502  
399.000000	1.403491  
399.500000	1.378914  
400.000000	1.371543  
400.500000	1.357935  
401.000000	1.367998  
401.500000	1.402334  
402.000000	1.440013  
402.500000	1.466753  
403.000000	1.513631  
403.500000	1.491058  
404.000000	1.439501  
404.500000	1.393288  
405.000000	1.303690  
405.500000	1.200928  
406.000000	1.091546  
406.500000	0.967590  
407.000000	0.838087  
407.500000	0.751113  
408.000000	0.699668  
408.500000	0.681638  
409.000000	0.738705  
409.500000	0.827422  
410.000000	0.953674  
410.500000	1.066191  
411.000000	1.144578  
411.500000	1.174643  
412.000000	1.212151  
412.500000	1.219650  
413.000000	1.185284  
413.500000	1.146212  
414.000000	1.159392  
414.500000	1.236283  
415.000000	1.355306  
415.500000	1.505370  
416.000000	1.617994  
416.500000	1.734543  
417.000000	1.794785  
417.500000	1.749819  
418.000000	1.616834  
418.500000	1.458335  
419.000000	1.296678  
419.500000	1.142962  
420.000000	1.036989  
420.500000	0.961037  
421.000000	0.967759  
421.500000	1.008691  
422.000000	1.044356  
422.500000	1.056080  
423.000000	1.072759  
423.500000	1.074075  
424.000000	1.049696  
424.500000	1.043427  
425.000000	1.031968  
425.500000	1.030869  
426.000000	1.026079  
426.500000	1.010210  
427.000000	0.995510  
427.500000	1.006729  
428.000000	1.015637  
428.500000	0.996820  
429.000000	0.991344  
429.500000	0.980336  
430.000000	0.970740  
430.500000	0.945352  
431.000000	0.900860  
431.500000	0.833547  
432.000000	0.793629  
432.500000	0.781539  
433.000000	0.761562  
433.500000	0.761888  
434.000000	0.781782  
434.500000	0.812154  
435.000000	0.861475  
435.500000	0.920271  
436.000000	0.950677  
436.500000	0.981778  
437.000000	1.023165  
437.500000	1.044008  
438.000000	1.042913  
438.500000	1.028916  
439.000000	0.982437  
439.500000	0.930535  
440.000000	0.897256  
440.500000	0.857595  
441.000000	0.827179  
441.500000	0.823030  
442.000000	0.840540  
442.500000	0.879397  
443.000000	0.933707  
443.500000	0.967174  
444.000000	0.974635  
444.500000	0.952889  

