PE FL                   SPECTRUM    ASCII       PEDS        1.60        
  -1
PM4772~1
23/10/12
11:29:14.00
23/10/12
11:29:14.00


444.500000
1









LS55
15.00
5.00
5.00
SCAN
1
20
100
500
0
500
0
2
0
1
7
ON
500 450 
1 0 0
#HDR
-1
-1
#GR
NM

0.00002384185791015625
0.0
250.000000
0.500000
390
8
12.483000
-4.441918
#DATA
250.000000	12.483000 
250.500000	7.823968  
251.000000	3.831070  
251.500000	0.884369  
252.000000	-1.026567 
252.500000	-1.843442 
253.000000	-2.028057 
253.500000	-1.867019 
254.000000	-1.745713 
254.500000	-1.818155 
255.000000	-2.500770 
255.500000	-2.984349 
256.000000	-3.177494 
256.500000	-3.351560 
257.000000	-3.319026 
257.500000	-3.192538 
258.000000	-2.977141 
258.500000	-3.016844 
259.000000	-2.735530 
259.500000	-2.786165 
260.000000	-2.808777 
260.500000	-2.712312 
261.000000	-2.654876 
261.500000	-2.457939 
262.000000	-2.257687 
262.500000	-1.837720 
263.000000	-1.567167 
263.500000	-0.986336 
264.000000	-0.548636 
264.500000	-0.463498 
265.000000	-0.868153 
265.500000	-1.370268 
266.000000	-1.774456 
266.500000	-2.212138 
267.000000	-2.166012 
267.500000	-1.951963 
268.000000	-1.345452 
268.500000	-0.372510 
269.000000	0.405635  
269.500000	0.374797  
270.000000	0.191361  
270.500000	-0.425314 
271.000000	-1.329069 
271.500000	-2.034825 
272.000000	-2.405402 
272.500000	-2.585388 
273.000000	-2.268810 
273.500000	-1.503509 
274.000000	-0.790700 
274.500000	-0.016241 
275.000000	0.222271  
275.500000	0.164097  
276.000000	0.148050  
276.500000	-0.004487 
277.000000	-0.593804 
277.500000	-1.037772 
278.000000	-1.106603 
278.500000	-0.895742 
279.000000	-0.371909 
279.500000	-0.093459 
280.000000	0.340281  
280.500000	0.974671  
281.000000	1.425387  
281.500000	1.129327  
282.000000	0.410080  
282.500000	-0.641135 
283.000000	-1.708597 
283.500000	-2.724885 
284.000000	-3.887220 
284.500000	-4.441918 
285.000000	-4.288601 
285.500000	-3.666019 
286.000000	-2.735527 
286.500000	-1.571693 
287.000000	-0.241735 
287.500000	0.984135  
288.000000	1.838639  
288.500000	2.049074  
289.000000	1.978354  
289.500000	1.568040  
290.000000	0.744206  
290.500000	-0.060585 
291.000000	-0.913491 
291.500000	-1.561708 
292.000000	-2.171917 
292.500000	-2.889337 
293.000000	-3.527663 
293.500000	-3.826662 
294.000000	-3.696453 
294.500000	-3.776279 
295.000000	-3.422388 
295.500000	-2.739612 
296.000000	-1.663596 
296.500000	-0.581846 
297.000000	0.181355  
297.500000	0.784189  
298.000000	1.263382  
298.500000	1.766675  
299.000000	1.429946  
299.500000	0.555402  
300.000000	-0.193855 
300.500000	-0.937897 
301.000000	-1.521839 
301.500000	-2.026099 
302.000000	-2.392005 
302.500000	-2.662289 
303.000000	-2.497715 
303.500000	-2.291038 
304.000000	-2.304830 
304.500000	-2.309407 
305.000000	-2.356273 
305.500000	-2.088635 
306.000000	-1.679902 
306.500000	-0.972354 
307.000000	-0.297536 
307.500000	0.172673  
308.000000	0.776982  
308.500000	1.208530  
309.000000	1.169698  
309.500000	0.981841  
310.000000	0.691603  
310.500000	0.376052  
311.000000	0.331360  
311.500000	0.374883  
312.000000	0.157295  
312.500000	-0.115880 
313.000000	-0.256901 
313.500000	-0.659499 
314.000000	-0.791496 
314.500000	-0.974777 
315.000000	-1.146775 
315.500000	-1.145646 
316.000000	-0.842299 
316.500000	-0.487005 
317.000000	-0.267564 
317.500000	-0.222060 
318.000000	-0.348009 
318.500000	-0.198988 
319.000000	-0.179857 
319.500000	-0.262037 
320.000000	-0.151751 
320.500000	0.180462  
321.000000	0.606591  
321.500000	0.917331  
322.000000	0.902500  
322.500000	0.788989  
323.000000	0.808488  
323.500000	0.756359  
324.000000	0.484473  
324.500000	0.306775  
325.000000	0.435090  
325.500000	0.771371  
326.000000	1.244616  
326.500000	1.536958  
327.000000	1.748903  
327.500000	2.013552  
328.000000	2.159671  
328.500000	2.038249  
329.000000	1.749347  
329.500000	1.448258  
330.000000	1.253988  
330.500000	1.137831  
331.000000	0.919682  
331.500000	0.700051  
332.000000	0.748313  
332.500000	0.920414  
333.000000	1.190373  
333.500000	1.449204  
334.000000	1.683268  
334.500000	1.995044  
335.000000	2.147089  
335.500000	2.211114  
336.000000	2.058668  
336.500000	1.896703  
337.000000	1.650421  
337.500000	1.578769  
338.000000	1.630444  
338.500000	1.811713  
339.000000	2.098157  
339.500000	2.141077  
340.000000	2.139935  
340.500000	2.021748  
341.000000	1.804372  
341.500000	1.307360  
342.000000	0.967351  
342.500000	0.781333  
343.000000	0.863022  
343.500000	1.106180  
344.000000	1.156101  
344.500000	1.184105  
345.000000	1.167856  
345.500000	1.107658  
346.000000	0.681520  
346.500000	0.220202  
347.000000	-0.190930 
347.500000	-0.392745 
348.000000	-0.369045 
348.500000	-0.245503 
349.000000	0.000752  
349.500000	0.326171  
350.000000	0.789477  
350.500000	1.226400  
351.000000	1.603158  
351.500000	1.878935  
352.000000	2.106495  
352.500000	2.243426  
353.000000	2.297390  
353.500000	2.277942  
354.000000	2.182630  
354.500000	2.070341  
355.000000	1.974179  
355.500000	1.897791  
356.000000	1.699253  
356.500000	1.521337  
357.000000	1.303876  
357.500000	1.155800  
358.000000	1.064082  
358.500000	0.968092  
359.000000	0.947767  
359.500000	0.975425  
360.000000	1.101003  
360.500000	1.170377  
361.000000	1.242592  
361.500000	1.227294  
362.000000	1.176311  
362.500000	1.186975  
363.000000	1.072293  
363.500000	0.912591  
364.000000	0.716484  
364.500000	0.547665  
365.000000	0.457311  
365.500000	0.537897  
366.000000	0.654377  
366.500000	0.809211  
367.000000	1.111588  
367.500000	1.345857  
368.000000	1.449816  
368.500000	1.388534  
369.000000	1.154927  
369.500000	0.884594  
370.000000	0.730688  
370.500000	0.614215  
371.000000	0.627608  
371.500000	0.764841  
372.000000	0.948416  
372.500000	1.081848  
373.000000	1.145213  
373.500000	1.121570  
374.000000	1.012236  
374.500000	0.977347  
375.000000	1.017612  
375.500000	1.186777  
376.000000	1.404390  
376.500000	1.642696  
377.000000	1.839972  
377.500000	1.951588  
378.000000	2.015962  
378.500000	1.975168  
379.000000	1.837804  
379.500000	1.640793  
380.000000	1.479467  
380.500000	1.347384  
381.000000	1.244267  
381.500000	1.182349  
382.000000	1.189799  
382.500000	1.294940  
383.000000	1.433246  
383.500000	1.540703  
384.000000	1.581856  
384.500000	1.532169  
385.000000	1.376198  
385.500000	1.121908  
386.000000	0.807273  
386.500000	0.513240  
387.000000	0.265191  
387.500000	0.143841  
388.000000	0.147431  
388.500000	0.262790  
389.000000	0.498822  
389.500000	0.778466  
390.000000	1.041988  
390.500000	1.258460  
391.000000	1.472705  
391.500000	1.606712  
392.000000	1.707792  
392.500000	1.708492  
393.000000	1.642364  
393.500000	1.559076  
394.000000	1.432604  
394.500000	1.300946  
395.000000	1.117561  
395.500000	0.998625  
396.000000	0.883548  
396.500000	0.853992  
397.000000	0.846845  
397.500000	0.913005  
398.000000	1.023454  
398.500000	1.141490  
399.000000	1.288869  
399.500000	1.378043  
400.000000	1.439528  
400.500000	1.415712  
401.000000	1.349212  
401.500000	1.189200  
402.000000	1.070564  
402.500000	0.970132  
403.000000	0.913324  
403.500000	0.943425  
404.000000	1.001328  
404.500000	1.147501  
405.000000	1.314559  
405.500000	1.480371  
406.000000	1.557708  
406.500000	1.591272  
407.000000	1.556269  
407.500000	1.482285  
408.000000	1.391485  
408.500000	1.237240  
409.000000	1.128613  
409.500000	1.031696  
410.000000	0.973727  
410.500000	0.964738  
411.000000	0.988689  
411.500000	1.032438  
412.000000	1.095032  
412.500000	1.207057  
413.000000	1.258876  
413.500000	1.323238  
414.000000	1.331415  
414.500000	1.274613  
415.000000	1.200542  
415.500000	1.098434  
416.000000	1.015601  
416.500000	0.965227  
417.000000	0.966357  
417.500000	0.967816  
418.000000	1.033996  
418.500000	1.131705  
419.000000	1.207470  
419.500000	1.288732  
420.000000	1.299631  
420.500000	1.284177  
421.000000	1.262338  
421.500000	1.230582  
422.000000	1.166885  
422.500000	1.132818  
423.000000	1.150065  
423.500000	1.188567  
424.000000	1.266371  
424.500000	1.304607  
425.000000	1.345183  
425.500000	1.373599  
426.000000	1.369139  
426.500000	1.308949  
427.000000	1.208238  
427.500000	1.127797  
428.000000	1.063346  
428.500000	1.035734  
429.000000	1.015778  
429.500000	1.034231  
430.000000	1.060782  
430.500000	1.086062  
431.000000	1.098964  
431.500000	1.067635  
432.000000	1.034588  
432.500000	1.001114  
433.000000	0.953461  
433.500000	0.906443  
434.000000	0.901898  
434.500000	0.888792  
435.000000	0.865798  
435.500000	0.839360  
436.000000	0.805482  
436.500000	0.768481  
437.000000	0.749769  
437.500000	0.737630  
438.000000	0.751011  
438.500000	0.806692  
439.000000	0.872516  
439.500000	0.934064  
440.000000	0.963853  
440.500000	0.993158  
441.000000	0.999609  
441.500000	0.999650  
442.000000	0.985416  
442.500000	0.966787  
443.000000	0.955402  
443.500000	0.947011  
444.000000	0.938441  
444.500000	0.906008  

