PE FL                   SPECTRUM    ASCII       PEDS        1.60        
  -1
PM8772~1
23/10/12
11:31:56.00
23/10/12
11:31:56.00


444.500000
1









LS55
35.00
5.00
5.00
SCAN
1
20
100
500
0
500
0
2
0
1
7
ON
500 450 
1 0 0
#HDR
-1
-1
#GR
NM

0.00002384185791015625
0.0
250.000000
0.500000
390
8
5.361645
-4.227599
#DATA
250.000000	0.000000  
250.500000	-0.662530 
251.000000	-1.272433 
251.500000	-1.796664 
252.000000	-2.023067 
252.500000	-2.043566 
253.000000	-2.386796 
253.500000	-2.851145 
254.000000	-3.256258 
254.500000	-3.614409 
255.000000	-3.984500 
255.500000	-4.227599 
256.000000	-4.169988 
256.500000	-3.857224 
257.000000	-3.285236 
257.500000	-3.135041 
258.000000	-3.326768 
258.500000	-3.373280 
259.000000	-3.406437 
259.500000	-3.456815 
260.000000	-3.696011 
260.500000	-3.484549 
261.000000	-3.112384 
261.500000	-2.147708 
262.000000	-1.232090 
262.500000	-0.282899 
263.000000	0.909992  
263.500000	1.944763  
264.000000	2.488880  
264.500000	2.378354  
265.000000	2.002492  
265.500000	1.087152  
266.000000	0.152686  
266.500000	-0.622619 
267.000000	-1.418192 
267.500000	-1.572538 
268.000000	-1.101213 
268.500000	-0.539410 
269.000000	0.058288  
269.500000	0.571263  
270.000000	0.841235  
270.500000	0.924200  
271.000000	1.022124  
271.500000	0.936848  
272.000000	1.077090  
272.500000	1.872418  
273.000000	2.625375  
273.500000	3.342906  
274.000000	3.658551  
274.500000	3.706009  
275.000000	3.153379  
275.500000	2.195588  
276.000000	0.905619  
276.500000	-0.567297 
277.000000	-1.835284 
277.500000	-2.513945 
278.000000	-2.549833 
278.500000	-2.102509 
279.000000	-1.148477 
279.500000	-0.240949 
280.000000	0.165858  
280.500000	0.434451  
281.000000	0.749274  
281.500000	0.578026  
282.000000	0.377573  
282.500000	0.417365  
283.000000	0.820573  
283.500000	1.529048  
284.000000	2.100959  
284.500000	2.309785  
285.000000	2.160802  
285.500000	2.117334  
286.000000	1.548102  
286.500000	0.545163  
287.000000	-0.474481 
287.500000	-1.115154 
288.000000	-1.282881 
288.500000	-1.323844 
289.000000	-1.224858 
289.500000	-1.193255 
290.000000	-1.306468 
290.500000	-1.235544 
291.000000	-1.197030 
291.500000	-1.306791 
292.000000	-1.510443 
292.500000	-1.509441 
293.000000	-1.465398 
293.500000	-1.561744 
294.000000	-1.601677 
294.500000	-1.946977 
295.000000	-1.914393 
295.500000	-1.463791 
296.000000	-0.712330 
296.500000	0.067334  
297.000000	1.278237  
297.500000	2.783541  
298.000000	4.048418  
298.500000	5.059705  
299.000000	5.361645  
299.500000	4.936767  
300.000000	4.166037  
300.500000	3.067462  
301.000000	1.659035  
301.500000	0.348533  
302.000000	-0.562300 
302.500000	-1.353991 
303.000000	-1.906085 
303.500000	-2.046222 
304.000000	-2.019263 
304.500000	-1.621478 
305.000000	-1.300810 
305.500000	-0.901316 
306.000000	-0.600066 
306.500000	-0.232174 
307.000000	-0.148728 
307.500000	-0.330199 
308.000000	-0.534227 
308.500000	-0.468459 
309.000000	-0.058819 
309.500000	0.393013  
310.000000	0.941584  
310.500000	1.233846  
311.000000	1.441681  
311.500000	1.406128  
312.000000	0.992132  
312.500000	0.285094  
313.000000	-0.036731 
313.500000	-0.122252 
314.000000	0.055623  
314.500000	0.557958  
315.000000	0.970147  
315.500000	1.425896  
316.000000	1.809916  
316.500000	1.974659  
317.000000	1.824737  
317.500000	1.930170  
318.000000	1.970638  
318.500000	2.257109  
319.000000	2.643299  
319.500000	2.671454  
320.000000	2.590433  
320.500000	2.377547  
321.000000	2.195995  
321.500000	1.930742  
322.000000	1.735374  
322.500000	1.707906  
323.000000	2.146432  
323.500000	2.845344  
324.000000	3.287361  
324.500000	3.761612  
325.000000	4.035891  
325.500000	4.357803  
326.000000	4.595979  
326.500000	4.375539  
327.000000	3.933321  
327.500000	3.541625  
328.000000	3.229266  
328.500000	2.790739  
329.000000	2.501378  
329.500000	2.274808  
330.000000	2.340223  
330.500000	2.782605  
331.000000	3.021875  
331.500000	3.290920  
332.000000	3.401026  
332.500000	3.413147  
333.000000	3.094881  
333.500000	2.612364  
334.000000	2.030146  
334.500000	1.645734  
335.000000	1.553785  
335.500000	1.442416  
336.000000	1.573889  
336.500000	1.723463  
337.000000	2.023563  
337.500000	2.268666  
338.000000	2.333480  
338.500000	2.215922  
339.000000	2.130192  
339.500000	2.131229  
340.000000	1.891430  
340.500000	1.619143  
341.000000	1.345471  
341.500000	1.212738  
342.000000	1.243525  
342.500000	1.343583  
343.000000	1.436288  
343.500000	1.577628  
344.000000	1.875613  
344.500000	2.045308  
345.000000	1.978262  
345.500000	1.739790  
346.000000	1.428567  
346.500000	1.167839  
347.000000	0.874013  
347.500000	0.672398  
348.000000	0.558881  
348.500000	0.699354  
349.000000	1.006899  
349.500000	1.259296  
350.000000	1.425786  
350.500000	1.559071  
351.000000	1.731955  
351.500000	1.677259  
352.000000	1.533444  
352.500000	1.257039  
353.000000	1.001460  
353.500000	0.893794  
354.000000	0.776610  
354.500000	0.548629  
355.000000	0.398247  
355.500000	0.388305  
356.000000	0.347152  
356.500000	0.343899  
357.000000	0.278464  
357.500000	0.310098  
358.000000	0.445119  
358.500000	0.639175  
359.000000	0.669401  
359.500000	0.645496  
360.000000	0.655972  
360.500000	0.655987  
361.000000	0.695216  
361.500000	0.628794  
362.000000	0.568473  
362.500000	0.605317  
363.000000	0.719514  
363.500000	0.852392  
364.000000	0.918118  
364.500000	1.030777  
365.000000	1.131253  
365.500000	1.309612  
366.000000	1.376097  
366.500000	1.346909  
367.000000	1.390153  
367.500000	1.384671  
368.000000	1.342159  
368.500000	1.161571  
369.000000	1.011921  
369.500000	0.856591  
370.000000	0.746353  
370.500000	0.654267  
371.000000	0.513548  
371.500000	0.536313  
372.000000	0.552368  
372.500000	0.601389  
373.000000	0.588379  
373.500000	0.632999  
374.000000	0.711149  
374.500000	0.784325  
375.000000	0.851709  
375.500000	0.851837  
376.000000	0.899983  
376.500000	0.936186  
377.000000	0.921567  
377.500000	0.861847  
378.000000	0.818086  
378.500000	0.790902  
379.000000	0.735515  
379.500000	0.685697  
380.000000	0.687858  
380.500000	0.726530  
381.000000	0.739990  
381.500000	0.655234  
382.000000	0.592691  
382.500000	0.607178  
383.000000	0.572120  
383.500000	0.514985  
384.000000	0.464596  
384.500000	0.481324  
385.000000	0.504115  
385.500000	0.532476  
386.000000	0.491223  
386.500000	0.510053  
387.000000	0.689503  
387.500000	0.893219  
388.000000	1.033052  
388.500000	1.097274  
389.000000	1.131076  
389.500000	1.078529  
390.000000	0.951954  
390.500000	0.732655  
391.000000	0.523482  
391.500000	0.478404  
392.000000	0.552361  
392.500000	0.652197  
393.000000	0.750607  
393.500000	0.893475  
394.000000	0.998565  
394.500000	1.030802  
395.000000	0.957720  
395.500000	0.824030  
396.000000	0.706651  
396.500000	0.640440  
397.000000	0.614477  
397.500000	0.551614  
398.000000	0.522304  
398.500000	0.531838  
399.000000	0.571781  
399.500000	0.599468  
400.000000	0.635720  
400.500000	0.684298  
401.000000	0.728409  
401.500000	0.789946  
402.000000	0.815718  
402.500000	0.848841  
403.000000	0.903074  
403.500000	0.978937  
404.000000	1.045438  
404.500000	1.134384  
405.000000	1.208820  
405.500000	1.218327  
406.000000	1.175498  
406.500000	1.087544  
407.000000	1.012142  
407.500000	0.904454  
408.000000	0.793116  
408.500000	0.690651  
409.000000	0.658298  
409.500000	0.651451  
410.000000	0.654885  
410.500000	0.665302  
411.000000	0.673480  
411.500000	0.732403  
412.000000	0.744999  
412.500000	0.743552  
413.000000	0.722075  
413.500000	0.716208  
414.000000	0.675926  
414.500000	0.627418  
415.000000	0.621167  
415.500000	0.622460  
416.000000	0.671550  
416.500000	0.704341  
417.000000	0.736952  
417.500000	0.766587  
418.000000	0.780965  
418.500000	0.744786  
419.000000	0.692905  
419.500000	0.677595  
420.000000	0.686664  
420.500000	0.711550  
421.000000	0.738958  
421.500000	0.779004  
422.000000	0.841558  
422.500000	0.875150  
423.000000	0.864449  
423.500000	0.831690  
424.000000	0.804975  
424.500000	0.788760  
425.000000	0.774839  
425.500000	0.779215  
426.000000	0.783870  
426.500000	0.825220  
427.000000	0.854246  
427.500000	0.862850  
428.000000	0.864931  
428.500000	0.852606  
429.000000	0.837189  
429.500000	0.809128  
430.000000	0.800779  
430.500000	0.769466  
431.000000	0.743930  
431.500000	0.723265  
432.000000	0.685987  
432.500000	0.634826  
433.000000	0.568509  
433.500000	0.510872  
434.000000	0.463117  
434.500000	0.456951  
435.000000	0.452746  
435.500000	0.471867  
436.000000	0.522682  
436.500000	0.571865  
437.000000	0.607186  
437.500000	0.631067  
438.000000	0.643258  
438.500000	0.634073  
439.000000	0.642657  
439.500000	0.649279  
440.000000	0.633860  
440.500000	0.637072  
441.000000	0.637227  
441.500000	0.632675  
442.000000	0.635677  
442.500000	0.631066  
443.000000	0.617231  
443.500000	0.608765  
444.000000	0.612779  
444.500000	0.608822  

