PE FL                   SPECTRUM    ASCII       PEDS        1.60        
  -1
PM7772~1
23/10/12
11:31:15.00
23/10/12
11:31:15.00


444.500000
1









LS55
30.00
5.00
5.00
SCAN
1
20
100
500
0
500
0
2
0
1
7
ON
500 450 
1 0 0
#HDR
-1
-1
#GR
NM

0.00002384185791015625
0.0
250.000000
0.500000
390
8
6.874545
-4.542553
#DATA
250.000000	3.561000  
250.500000	1.667295  
251.000000	0.346816  
251.500000	-0.836801 
252.000000	-1.790112 
252.500000	-1.830691 
253.000000	-1.862688 
253.500000	-1.503810 
254.000000	-0.824455 
254.500000	-0.599787 
255.000000	-0.188872 
255.500000	0.469447  
256.000000	1.188831  
256.500000	1.612742  
257.000000	1.971929  
257.500000	1.836996  
258.000000	1.637996  
258.500000	1.249670  
259.000000	0.151892  
259.500000	-1.031519 
260.000000	-2.100459 
260.500000	-2.876053 
261.000000	-3.553318 
261.500000	-4.218737 
262.000000	-4.542553 
262.500000	-4.331770 
263.000000	-3.930262 
263.500000	-3.614309 
264.000000	-3.297993 
264.500000	-2.937327 
265.000000	-2.693520 
265.500000	-2.076328 
266.000000	-1.529661 
266.500000	-1.037122 
267.000000	-0.497604 
267.500000	0.020419  
268.000000	0.514280  
268.500000	0.782676  
269.000000	0.814180  
269.500000	0.367679  
270.000000	0.025250  
270.500000	-0.481179 
271.000000	-1.132982 
271.500000	-1.561481 
272.000000	-1.687256 
272.500000	-1.672713 
273.000000	-1.499464 
273.500000	-1.267594 
274.000000	-1.208357 
274.500000	-1.008883 
275.000000	-0.896791 
275.500000	-1.122799 
276.000000	-1.298011 
276.500000	-1.140762 
277.000000	-0.772635 
277.500000	-0.214068 
278.000000	0.500005  
278.500000	1.244175  
279.000000	2.070879  
279.500000	2.720906  
280.000000	2.977664  
280.500000	2.900225  
281.000000	2.482575  
281.500000	2.031541  
282.000000	1.663326  
282.500000	1.270880  
283.000000	0.752885  
283.500000	0.285841  
284.000000	0.063537  
284.500000	0.221818  
285.000000	0.363313  
285.500000	0.177035  
286.000000	0.072121  
286.500000	0.242113  
287.000000	0.327845  
287.500000	0.218693  
288.000000	0.100404  
288.500000	-0.085638 
289.000000	0.318450  
289.500000	0.796164  
290.000000	1.197741  
290.500000	1.657977  
291.000000	2.291543  
291.500000	2.442081  
292.000000	2.325762  
292.500000	2.044235  
293.000000	1.256096  
293.500000	0.552287  
294.000000	-0.352232 
294.500000	-1.046731 
295.000000	-1.325527 
295.500000	-0.991706 
296.000000	-0.777066 
296.500000	-0.437228 
297.000000	-0.017002 
297.500000	0.314390  
298.000000	0.617243  
298.500000	0.545243  
299.000000	0.279287  
299.500000	0.148486  
300.000000	0.243258  
300.500000	0.216432  
301.000000	0.064207  
301.500000	-0.404709 
302.000000	-0.452456 
302.500000	-0.399794 
303.000000	-0.164015 
303.500000	-0.171127 
304.000000	-0.027999 
304.500000	0.046037  
305.000000	0.565053  
305.500000	1.066590  
306.000000	1.094622  
306.500000	1.156558  
307.000000	1.133800  
307.500000	1.449261  
308.000000	1.512342  
308.500000	1.722718  
309.000000	1.677501  
309.500000	1.880244  
310.000000	2.108532  
310.500000	2.128291  
311.000000	2.083433  
311.500000	1.901966  
312.000000	2.061572  
312.500000	2.178253  
313.000000	2.497380  
313.500000	2.886170  
314.000000	3.514514  
314.500000	4.337613  
315.000000	5.195448  
315.500000	5.960972  
316.000000	6.416217  
316.500000	6.874545  
317.000000	6.854528  
317.500000	6.331868  
318.000000	5.433703  
318.500000	4.495992  
319.000000	3.621410  
319.500000	2.699817  
320.000000	2.275238  
320.500000	2.068328  
321.000000	2.362469  
321.500000	2.923156  
322.000000	3.606533  
322.500000	4.018548  
323.000000	4.305078  
323.500000	4.329681  
324.000000	3.763429  
324.500000	3.239722  
325.000000	2.742236  
325.500000	2.331576  
326.000000	2.039091  
326.500000	1.988793  
327.000000	2.027195  
327.500000	2.242929  
328.000000	2.534863  
328.500000	2.422370  
329.000000	2.220093  
329.500000	2.254381  
330.000000	2.157586  
330.500000	1.916109  
331.000000	1.655644  
331.500000	1.449045  
332.000000	1.202418  
332.500000	1.199695  
333.000000	1.169338  
333.500000	1.035400  
334.000000	1.204323  
334.500000	1.351010  
335.000000	1.437504  
335.500000	1.403891  
336.000000	1.364587  
336.500000	1.121345  
337.000000	0.855766  
337.500000	0.591175  
338.000000	0.246317  
338.500000	0.131918  
339.000000	0.132536  
339.500000	0.210350  
340.000000	0.330601  
340.500000	0.562494  
341.000000	0.786682  
341.500000	0.962517  
342.000000	1.062847  
342.500000	0.971007  
343.000000	0.806968  
343.500000	0.603577  
344.000000	0.377517  
344.500000	0.146790  
345.000000	0.007387  
345.500000	-0.032308 
346.000000	0.062493  
346.500000	0.212120  
347.000000	0.366301  
347.500000	0.490947  
348.000000	0.575020  
348.500000	0.593554  
349.000000	0.530055  
349.500000	0.367246  
350.000000	0.123411  
350.500000	-0.052707 
351.000000	-0.190355 
351.500000	-0.235797 
352.000000	-0.259477 
352.500000	-0.195551 
353.000000	-0.045645 
353.500000	0.138306  
354.000000	0.227358  
354.500000	0.181210  
355.000000	0.218476  
355.500000	0.265658  
356.000000	0.405768  
356.500000	0.556029  
357.000000	0.738366  
357.500000	0.999157  
358.000000	1.290334  
358.500000	1.518125  
359.000000	1.539814  
359.500000	1.484513  
360.000000	1.378348  
360.500000	1.226405  
361.000000	1.070201  
361.500000	0.857647  
362.000000	0.660770  
362.500000	0.446350  
363.000000	0.305578  
363.500000	0.138486  
364.000000	-0.067536 
364.500000	-0.229859 
365.000000	-0.307231 
365.500000	-0.198618 
366.000000	-0.001803 
366.500000	0.155847  
367.000000	0.196320  
367.500000	0.284872  
368.000000	0.435192  
368.500000	0.485015  
369.000000	0.507145  
369.500000	0.461848  
370.000000	0.429631  
370.500000	0.564356  
371.000000	0.721865  
371.500000	0.770422  
372.000000	0.797738  
372.500000	0.831187  
373.000000	0.824665  
373.500000	0.865608  
374.000000	0.832614  
374.500000	0.689738  
375.000000	0.642397  
375.500000	0.616951  
376.000000	0.598372  
376.500000	0.618284  
377.000000	0.589499  
377.500000	0.506510  
378.000000	0.567197  
378.500000	0.682892  
379.000000	0.757946  
379.500000	0.809965  
380.000000	0.783260  
380.500000	0.805624  
381.000000	0.914613  
381.500000	1.008485  
382.000000	0.960019  
382.500000	0.962512  
383.000000	0.978928  
383.500000	0.953185  
384.000000	0.928507  
384.500000	0.871594  
385.000000	0.847848  
385.500000	0.917463  
386.000000	1.051603  
386.500000	1.118289  
387.000000	1.207034  
387.500000	1.311014  
388.000000	1.340557  
388.500000	1.306355  
389.000000	1.243431  
389.500000	1.101712  
390.000000	1.013691  
390.500000	0.995826  
391.000000	0.966135  
391.500000	0.966189  
392.000000	1.000146  
392.500000	1.046598  
393.000000	1.089024  
393.500000	1.177608  
394.000000	1.203325  
394.500000	1.262739  
395.000000	1.350680  
395.500000	1.466602  
396.000000	1.564094  
396.500000	1.562652  
397.000000	1.510945  
397.500000	1.357786  
398.000000	1.171907  
398.500000	0.957368  
399.000000	0.769561  
399.500000	0.611118  
400.000000	0.538882  
400.500000	0.546748  
401.000000	0.597967  
401.500000	0.727358  
402.000000	0.841152  
402.500000	0.880335  
403.000000	0.910036  
403.500000	0.941464  
404.000000	0.952177  
404.500000	0.951776  
405.000000	0.937128  
405.500000	0.942860  
406.000000	0.968236  
406.500000	1.002469  
407.000000	0.947640  
407.500000	0.869358  
408.000000	0.828746  
408.500000	0.826544  
409.000000	0.861515  
409.500000	0.909893  
410.000000	0.985228  
410.500000	1.067516  
411.000000	1.181818  
411.500000	1.233478  
412.000000	1.197045  
412.500000	1.110771  
413.000000	1.017778  
413.500000	0.922162  
414.000000	0.831516  
414.500000	0.771968  
415.000000	0.694702  
415.500000	0.666325  
416.000000	0.660835  
416.500000	0.638195  
417.000000	0.607305  
417.500000	0.593968  
418.000000	0.602268  
418.500000	0.648519  
419.000000	0.734866  
419.500000	0.773715  
420.000000	0.805581  
420.500000	0.847890  
421.000000	0.875080  
421.500000	0.866266  
422.000000	0.869986  
422.500000	0.830312  
423.000000	0.780119  
423.500000	0.758244  
424.000000	0.717695  
424.500000	0.680029  
425.000000	0.642653  
425.500000	0.608404  
426.000000	0.589095  
426.500000	0.632997  
427.000000	0.688966  
427.500000	0.740375  
428.000000	0.799708  
428.500000	0.855368  
429.000000	0.915702  
429.500000	0.946450  
430.000000	0.936756  
430.500000	0.895609  
431.000000	0.856293  
431.500000	0.825359  
432.000000	0.786683  
432.500000	0.751671  
433.000000	0.720574  
433.500000	0.729664  
434.000000	0.758682  
434.500000	0.778196  
435.000000	0.787693  
435.500000	0.772641  
436.000000	0.765373  
436.500000	0.759025  
437.000000	0.740957  
437.500000	0.722497  
438.000000	0.726652  
438.500000	0.747896  
439.000000	0.763974  
439.500000	0.785791  
440.000000	0.784688  
440.500000	0.784057  
441.000000	0.785213  
441.500000	0.769568  
442.000000	0.752849  
442.500000	0.746746  
443.000000	0.740399  
443.500000	0.719861  
444.000000	0.716774  
444.500000	0.702718  

