PE FL                   SPECTRUM    ASCII       PEDS        1.60        
  -1
PMA772~1
23/10/12
11:33:16.00
23/10/12
11:33:16.00


444.500000
1









LS55
45.00
5.00
5.00
SCAN
1
20
100
500
0
500
0
2
0
1
7
ON
500 450 
1 0 0
#HDR
-1
-1
#GR
NM

0.00002384185791015625
0.0
250.000000
0.500000
390
8
3.800555
-3.530909
#DATA
250.000000	0.710000  
250.500000	-0.988860 
251.000000	-2.050297 
251.500000	-2.577661 
252.000000	-2.762779 
252.500000	-2.514892 
253.000000	-1.838105 
253.500000	-1.021574 
254.000000	-0.446009 
254.500000	-0.327365 
255.000000	-0.700718 
255.500000	-1.020529 
256.000000	-1.519405 
256.500000	-2.223836 
257.000000	-2.912591 
257.500000	-3.293529 
258.000000	-3.330851 
258.500000	-3.443719 
259.000000	-3.530909 
259.500000	-3.329591 
260.000000	-2.739599 
260.500000	-2.057630 
261.000000	-1.322336 
261.500000	-0.677079 
262.000000	-0.150848 
262.500000	0.123540  
263.000000	-0.193530 
263.500000	-1.004546 
264.000000	-1.699251 
264.500000	-2.228679 
265.000000	-2.895081 
265.500000	-3.278987 
266.000000	-3.465807 
266.500000	-3.482426 
267.000000	-3.161089 
267.500000	-2.825670 
268.000000	-2.931392 
268.500000	-2.725818 
269.000000	-2.508561 
269.500000	-2.154452 
270.000000	-1.626433 
270.500000	-1.026752 
271.000000	-0.632246 
271.500000	-0.214917 
272.000000	-0.015714 
272.500000	-0.482555 
273.000000	-0.931246 
273.500000	-1.573063 
274.000000	-1.910483 
274.500000	-1.696010 
275.000000	-1.129954 
275.500000	-0.424784 
276.000000	0.553840  
276.500000	1.756109  
277.000000	2.188881  
277.500000	2.460226  
278.000000	2.152119  
278.500000	1.448141  
279.000000	0.654640  
279.500000	-0.111091 
280.000000	-0.697249 
280.500000	-1.175606 
281.000000	-1.322356 
281.500000	-1.712518 
282.000000	-1.983387 
282.500000	-2.137853 
283.000000	-2.335738 
283.500000	-2.178007 
284.000000	-1.736406 
284.500000	-1.199754 
285.000000	-0.681563 
285.500000	-0.253315 
286.000000	-0.269727 
286.500000	-0.473623 
287.000000	-0.680446 
287.500000	-1.021372 
288.000000	-1.271759 
288.500000	-1.224698 
289.000000	-1.139564 
289.500000	-0.917253 
290.000000	-1.005809 
290.500000	-1.201719 
291.000000	-1.570284 
291.500000	-1.917682 
292.000000	-2.313076 
292.500000	-2.793448 
293.000000	-2.814181 
293.500000	-2.620176 
294.000000	-2.231983 
294.500000	-1.998639 
295.000000	-1.828713 
295.500000	-1.826753 
296.000000	-1.589354 
296.500000	-1.190918 
297.000000	-1.194153 
297.500000	-1.259183 
298.000000	-1.310387 
298.500000	-1.143148 
299.000000	-0.923931 
299.500000	-0.773226 
300.000000	-0.726849 
300.500000	-0.551166 
301.000000	-0.150581 
301.500000	0.118580  
302.000000	-0.069239 
302.500000	-0.671195 
303.000000	-1.230910 
303.500000	-1.389116 
304.000000	-1.581950 
304.500000	-1.602582 
305.000000	-1.347778 
305.500000	-0.784333 
306.000000	0.399780  
306.500000	1.392864  
307.000000	1.903953  
307.500000	2.047708  
308.000000	2.372587  
308.500000	2.561510  
309.000000	2.807455  
309.500000	2.853900  
310.000000	2.825683  
310.500000	3.117122  
311.000000	3.483049  
311.500000	3.800555  
312.000000	3.710620  
312.500000	3.553241  
313.000000	3.414225  
313.500000	3.298450  
314.000000	2.929159  
314.500000	2.222791  
315.000000	1.537230  
315.500000	1.203324  
316.000000	1.160507  
316.500000	1.242150  
317.000000	1.385218  
317.500000	1.717712  
318.000000	2.199726  
318.500000	2.560835  
319.000000	2.525075  
319.500000	2.186731  
320.000000	1.592036  
320.500000	0.876170  
321.000000	0.230926  
321.500000	-0.212083 
322.000000	-0.344564 
322.500000	-0.216404 
323.000000	0.154224  
323.500000	0.478497  
324.000000	0.842013  
324.500000	0.955434  
325.000000	0.895858  
325.500000	0.744413  
326.000000	0.785166  
326.500000	1.057958  
327.000000	1.596145  
327.500000	2.211182  
328.000000	2.691111  
328.500000	3.215497  
329.000000	3.405661  
329.500000	3.227645  
330.000000	2.837654  
330.500000	2.357724  
331.000000	1.944507  
331.500000	1.685357  
332.000000	1.634589  
332.500000	1.516620  
333.000000	1.486152  
333.500000	1.370131  
334.000000	0.945628  
334.500000	0.481336  
335.000000	0.121548  
335.500000	-0.133837 
336.000000	-0.214024 
336.500000	0.055939  
337.000000	0.399936  
337.500000	0.919157  
338.000000	1.503139  
338.500000	1.902603  
339.000000	2.171830  
339.500000	2.370652  
340.000000	2.469845  
340.500000	2.418729  
341.000000	2.463711  
341.500000	2.431491  
342.000000	2.429582  
342.500000	2.512942  
343.000000	2.587496  
343.500000	2.550234  
344.000000	2.498868  
344.500000	2.378766  
345.000000	2.010358  
345.500000	1.694236  
346.000000	1.356345  
346.500000	1.133848  
347.000000	1.059126  
347.500000	1.200256  
348.000000	1.483616  
348.500000	1.750962  
349.000000	2.115063  
349.500000	2.216188  
350.000000	2.207304  
350.500000	2.111315  
351.000000	1.997443  
351.500000	1.792374  
352.000000	1.700346  
352.500000	1.750058  
353.000000	1.857740  
353.500000	2.109253  
354.000000	2.217725  
354.500000	2.254827  
355.000000	2.303579  
355.500000	2.294980  
356.000000	2.048433  
356.500000	1.766953  
357.000000	1.491804  
357.500000	1.298472  
358.000000	1.206592  
358.500000	1.156712  
359.000000	1.210175  
359.500000	1.440757  
360.000000	1.786233  
360.500000	2.166347  
361.000000	2.558021  
361.500000	2.757450  
362.000000	2.899861  
362.500000	2.939762  
363.000000	2.913338  
363.500000	2.901325  
364.000000	2.894851  
364.500000	2.882010  
365.000000	3.016029  
365.500000	3.271371  
366.000000	3.426546  
366.500000	3.457831  
367.000000	3.300121  
367.500000	3.104323  
368.000000	2.944579  
368.500000	2.798329  
369.000000	2.674454  
369.500000	2.732305  
370.000000	2.818209  
370.500000	2.939592  
371.000000	3.057409  
371.500000	3.003025  
372.000000	2.915990  
372.500000	2.735971  
373.000000	2.610405  
373.500000	2.521820  
374.000000	2.561171  
374.500000	2.596539  
375.000000	2.754548  
375.500000	2.964194  
376.000000	3.033762  
376.500000	3.079012  
377.000000	2.928313  
377.500000	2.731995  
378.000000	2.568819  
378.500000	2.452196  
379.000000	2.258242  
379.500000	2.112372  
380.000000	2.079803  
380.500000	2.079053  
381.000000	2.172030  
381.500000	2.216709  
382.000000	2.313682  
382.500000	2.488340  
383.000000	2.637446  
383.500000	2.683894  
384.000000	2.616112  
384.500000	2.551570  
385.000000	2.440803  
385.500000	2.262050  
386.000000	2.035213  
386.500000	1.787295  
387.000000	1.591872  
387.500000	1.501687  
388.000000	1.485812  
388.500000	1.449839  
389.000000	1.491405  
389.500000	1.541767  
390.000000	1.590934  
390.500000	1.617977  
391.000000	1.665387  
391.500000	1.722342  
392.000000	1.777192  
392.500000	1.833596  
393.000000	1.870958  
393.500000	1.878225  
394.000000	1.817771  
394.500000	1.726424  
395.000000	1.525782  
395.500000	1.319052  
396.000000	1.100605  
396.500000	0.869315  
397.000000	0.680770  
397.500000	0.602529  
398.000000	0.544350  
398.500000	0.526203  
399.000000	0.566760  
399.500000	0.578363  
400.000000	0.643444  
400.500000	0.725691  
401.000000	0.787162  
401.500000	0.849564  
402.000000	0.955108  
402.500000	1.032932  
403.000000	1.132260  
403.500000	1.209505  
404.000000	1.238433  
404.500000	1.251708  
405.000000	1.233067  
405.500000	1.177236  
406.000000	1.142847  
406.500000	1.112640  
407.000000	1.060857  
407.500000	1.077097  
408.000000	1.103307  
408.500000	1.092777  
409.000000	1.042891  
409.500000	0.962789  
410.000000	0.843601  
410.500000	0.751265  
411.000000	0.656541  
411.500000	0.590821  
412.000000	0.596997  
412.500000	0.656150  
413.000000	0.717302  
413.500000	0.772927  
414.000000	0.819424  
414.500000	0.805705  
415.000000	0.780502  
415.500000	0.718987  
416.000000	0.654265  
416.500000	0.609813  
417.000000	0.607885  
417.500000	0.612228  
418.000000	0.636898  
418.500000	0.709602  
419.000000	0.770156  
419.500000	0.836798  
420.000000	0.882199  
420.500000	0.913444  
421.000000	0.916094  
421.500000	0.878198  
422.000000	0.784980  
422.500000	0.654722  
423.000000	0.535448  
423.500000	0.431290  
424.000000	0.381122  
424.500000	0.381101  
425.000000	0.436448  
425.500000	0.529359  
426.000000	0.644139  
426.500000	0.755807  
427.000000	0.823067  
427.500000	0.819154  
428.000000	0.790506  
428.500000	0.739757  
429.000000	0.651877  
429.500000	0.572650  
430.000000	0.504839  
430.500000	0.481035  
431.000000	0.512609  
431.500000	0.575855  
432.000000	0.624348  
432.500000	0.691423  
433.000000	0.759293  
433.500000	0.783199  
434.000000	0.779430  
434.500000	0.738896  
435.000000	0.687937  
435.500000	0.645265  
436.000000	0.607311  
436.500000	0.567314  
437.000000	0.550266  
437.500000	0.557660  
438.000000	0.572016  
438.500000	0.586374  
439.000000	0.585376  
439.500000	0.577157  
440.000000	0.558011  
440.500000	0.518408  
441.000000	0.477480  
441.500000	0.435392  
442.000000	0.417208  
442.500000	0.414063  
443.000000	0.428556  
443.500000	0.453658  
444.000000	0.485196  
444.500000	0.525824  

