PE FL                   SPECTRUM    ASCII       PEDS        1.60        
  -1
PM9772~1
23/10/12
11:32:36.00
23/10/12
11:32:36.00


444.500000
1









LS55
40.00
5.00
5.00
SCAN
1
20
100
500
0
500
0
2
0
1
7
ON
500 450 
1 0 0
#HDR
-1
-1
#GR
NM

0.00002384185791015625
0.0
250.000000
0.500000
390
8
4.935890
-4.999999
#DATA
250.000000	-4.999999 
250.500000	-3.880645 
251.000000	-2.765359 
251.500000	-1.839819 
252.000000	-1.450243 
252.500000	-1.535693 
253.000000	-1.846839 
253.500000	-2.203279 
254.000000	-2.818474 
254.500000	-3.172750 
255.000000	-3.585860 
255.500000	-3.744194 
256.000000	-3.502148 
256.500000	-3.256155 
257.000000	-3.060780 
257.500000	-2.778071 
258.000000	-2.543067 
258.500000	-2.902735 
259.000000	-3.041408 
259.500000	-3.266266 
260.000000	-3.768864 
260.500000	-4.102533 
261.000000	-4.074835 
261.500000	-3.692892 
262.000000	-3.213212 
262.500000	-2.069897 
263.000000	-1.339132 
263.500000	-0.320236 
264.000000	0.792340  
264.500000	1.335534  
265.000000	1.371528  
265.500000	1.166483  
266.000000	0.780598  
266.500000	-0.345559 
267.000000	-1.160442 
267.500000	-2.253866 
268.000000	-2.842051 
268.500000	-2.793744 
269.000000	-2.513569 
269.500000	-2.184697 
270.000000	-1.667170 
270.500000	-1.185873 
271.000000	-1.258545 
271.500000	-1.320580 
272.000000	-1.860028 
272.500000	-2.460422 
273.000000	-3.187910 
273.500000	-3.591332 
274.000000	-3.699497 
274.500000	-3.276501 
275.000000	-2.770607 
275.500000	-2.205466 
276.000000	-1.460937 
276.500000	-0.963963 
277.000000	-0.581600 
277.500000	-0.706426 
278.000000	-1.055048 
278.500000	-1.614544 
279.000000	-2.087884 
279.500000	-2.824173 
280.000000	-3.631790 
280.500000	-4.196320 
281.000000	-4.454638 
281.500000	-4.091836 
282.000000	-3.533884 
282.500000	-2.894108 
283.000000	-2.213010 
283.500000	-1.070452 
284.000000	-0.037145 
284.500000	0.562457  
285.000000	0.973085  
285.500000	1.176659  
286.000000	1.303440  
286.500000	1.395693  
287.000000	1.082442  
287.500000	0.436127  
288.000000	0.122011  
288.500000	-0.052059 
289.000000	-0.340519 
289.500000	-0.700613 
290.000000	-0.729618 
290.500000	-0.492900 
291.000000	-0.166386 
291.500000	-0.152090 
292.000000	-0.205080 
292.500000	-0.143264 
293.000000	-0.269514 
293.500000	-0.473333 
294.000000	-0.797345 
294.500000	-0.715296 
295.000000	-0.392425 
295.500000	-0.098331 
296.000000	0.012959  
296.500000	0.275801  
297.000000	0.508041  
297.500000	0.492508  
298.000000	0.259160  
298.500000	-0.408137 
299.000000	-0.975505 
299.500000	-1.277370 
300.000000	-1.416670 
300.500000	-1.577658 
301.000000	-1.386472 
301.500000	-0.999770 
302.000000	-0.596618 
302.500000	-0.268862 
303.000000	-0.103541 
303.500000	-0.195075 
304.000000	-0.294508 
304.500000	-0.451208 
305.000000	-0.622541 
305.500000	-0.391799 
306.000000	-0.058103 
306.500000	0.390548  
307.000000	0.917713  
307.500000	1.525492  
308.000000	1.749950  
308.500000	2.005131  
309.000000	2.211352  
309.500000	2.303964  
310.000000	2.710502  
310.500000	3.238474  
311.000000	3.720838  
311.500000	4.154000  
312.000000	4.759968  
312.500000	4.935890  
313.000000	4.863751  
313.500000	4.511461  
314.000000	3.872478  
314.500000	3.188929  
315.000000	2.340793  
315.500000	1.367786  
316.000000	0.500740  
316.500000	0.205778  
317.000000	0.078665  
317.500000	0.216695  
318.000000	0.650440  
318.500000	1.445019  
319.000000	2.483429  
319.500000	3.539810  
320.000000	4.060118  
320.500000	4.034218  
321.000000	3.766144  
321.500000	3.055534  
322.000000	2.053092  
322.500000	1.112345  
323.000000	0.526450  
323.500000	0.320027  
324.000000	0.669489  
324.500000	1.064478  
325.000000	1.614966  
325.500000	2.281855  
326.000000	2.805240  
326.500000	3.066256  
327.000000	3.006031  
327.500000	2.859445  
328.000000	2.585045  
328.500000	2.265900  
329.000000	1.656978  
329.500000	1.184014  
330.000000	0.784324  
330.500000	0.498674  
331.000000	0.270355  
331.500000	0.032519  
332.000000	-0.024518 
332.500000	0.194314  
333.000000	0.486014  
333.500000	0.514775  
334.000000	0.597205  
334.500000	0.753576  
335.000000	0.930676  
335.500000	1.072397  
336.000000	1.037596  
336.500000	0.984493  
337.000000	1.067922  
337.500000	1.233563  
338.000000	1.239286  
338.500000	1.320380  
339.000000	1.492981  
339.500000	1.787780  
340.000000	2.168507  
340.500000	2.393800  
341.000000	2.562068  
341.500000	2.652658  
342.000000	2.695394  
342.500000	2.564650  
343.000000	2.389056  
343.500000	2.214962  
344.000000	2.034508  
344.500000	2.050221  
345.000000	2.091436  
345.500000	2.217542  
346.000000	2.367706  
346.500000	2.410801  
347.000000	2.362497  
347.500000	2.345907  
348.000000	2.331129  
348.500000	2.148015  
349.000000	2.030481  
349.500000	2.024755  
350.000000	2.151012  
350.500000	2.369254  
351.000000	2.507905  
351.500000	2.698074  
352.000000	2.809879  
352.500000	2.852669  
353.000000	2.785113  
353.500000	2.565244  
354.000000	2.287423  
354.500000	1.982812  
355.000000	1.826738  
355.500000	1.663295  
356.000000	1.676098  
356.500000	1.768123  
357.000000	1.827788  
357.500000	1.964157  
358.000000	2.126081  
358.500000	2.291489  
359.000000	2.363504  
359.500000	2.414249  
360.000000	2.423858  
360.500000	2.420156  
361.000000	2.419468  
361.500000	2.256959  
362.000000	2.133042  
362.500000	2.056487  
363.000000	2.057132  
363.500000	2.071676  
364.000000	2.085383  
364.500000	2.101950  
365.000000	2.124583  
365.500000	2.178869  
366.000000	2.055776  
366.500000	1.877617  
367.000000	1.679321  
367.500000	1.487914  
368.000000	1.336317  
368.500000	1.159558  
369.000000	0.907599  
369.500000	0.724881  
370.000000	0.665863  
370.500000	0.532751  
371.000000	0.474512  
371.500000	0.522477  
372.000000	0.699972  
372.500000	0.955748  
373.000000	1.254180  
373.500000	1.430192  
374.000000	1.549561  
374.500000	1.773693  
375.000000	1.873454  
375.500000	1.794199  
376.000000	1.591603  
376.500000	1.350682  
377.000000	1.081184  
377.500000	0.891008  
378.000000	0.778841  
378.500000	0.684871  
379.000000	0.786269  
379.500000	0.991577  
380.000000	1.180473  
380.500000	1.347405  
381.000000	1.445211  
381.500000	1.352414  
382.000000	1.147271  
382.500000	0.931255  
383.000000	0.689959  
383.500000	0.512655  
384.000000	0.477822  
384.500000	0.522418  
385.000000	0.672456  
385.500000	0.899386  
386.000000	1.076223  
386.500000	1.198800  
387.000000	1.272612  
387.500000	1.351344  
388.000000	1.372185  
388.500000	1.357062  
389.000000	1.333386  
389.500000	1.308545  
390.000000	1.347514  
390.500000	1.356558  
391.000000	1.328571  
391.500000	1.249087  
392.000000	1.196154  
392.500000	1.138293  
393.000000	1.041664  
393.500000	0.935171  
394.000000	0.813297  
394.500000	0.763149  
395.000000	0.733588  
395.500000	0.757714  
396.000000	0.814180  
396.500000	0.939212  
397.000000	1.081155  
397.500000	1.180038  
398.000000	1.190937  
398.500000	1.124980  
399.000000	1.036951  
399.500000	0.920557  
400.000000	0.821652  
400.500000	0.766845  
401.000000	0.754315  
401.500000	0.791779  
402.000000	0.835640  
402.500000	0.887278  
403.000000	0.933242  
403.500000	0.950274  
404.000000	0.893573  
404.500000	0.825440  
405.000000	0.802650  
405.500000	0.754533  
406.000000	0.728269  
406.500000	0.699856  
407.000000	0.669382  
407.500000	0.654603  
408.000000	0.690268  
408.500000	0.711847  
409.000000	0.760638  
409.500000	0.880301  
410.000000	0.964945  
410.500000	1.044244  
411.000000	1.106686  
411.500000	1.129611  
412.000000	1.130839  
412.500000	1.117591  
413.000000	1.058671  
413.500000	0.958127  
414.000000	0.877677  
414.500000	0.764755  
415.000000	0.658855  
415.500000	0.606558  
416.000000	0.546186  
416.500000	0.544478  
417.000000	0.553668  
417.500000	0.576565  
418.000000	0.610750  
418.500000	0.671824  
419.000000	0.696591  
419.500000	0.712086  
420.000000	0.728563  
420.500000	0.700357  
421.000000	0.702111  
421.500000	0.684081  
422.000000	0.658959  
422.500000	0.654584  
423.000000	0.663474  
423.500000	0.652461  
424.000000	0.628270  
424.500000	0.624235  
425.000000	0.641625  
425.500000	0.702102  
426.000000	0.740036  
426.500000	0.751393  
427.000000	0.763860  
427.500000	0.783669  
428.000000	0.809412  
428.500000	0.800802  
429.000000	0.755100  
429.500000	0.728546  
430.000000	0.724085  
430.500000	0.707903  
431.000000	0.672149  
431.500000	0.609442  
432.000000	0.531898  
432.500000	0.485150  
433.000000	0.452009  
433.500000	0.415899  
434.000000	0.419614  
434.500000	0.467439  
435.000000	0.536466  
435.500000	0.598210  
436.000000	0.629930  
436.500000	0.614541  
437.000000	0.571905  
437.500000	0.517776  
438.000000	0.451552  
438.500000	0.400229  
439.000000	0.375571  
439.500000	0.382480  
440.000000	0.415947  
440.500000	0.480879  
441.000000	0.548002  
441.500000	0.598227  
442.000000	0.631864  
442.500000	0.634143  
443.000000	0.611277  
443.500000	0.583253  
444.000000	0.558514  
444.500000	0.550389  

