PE FL                   SPECTRUM    ASCII       PEDS        1.60        
  -1
PM2772~1
23/10/12
11:27:53.00
23/10/12
11:27:53.00


444.500000
1









LS55
5.00
5.00
5.00
SCAN
1
20
100
500
0
500
0
2
0
1
7
ON
500 450 
1 0 0
#HDR
-1
-1
#GR
NM

0.00002384185791015625
0.0
250.000000
0.500000
390
8
47.259376
-4.469309
#DATA
250.000000	5.637000  
250.500000	3.736204  
251.000000	1.871945  
251.500000	0.114261  
252.000000	-1.274725 
252.500000	-2.728774 
253.000000	-3.719339 
253.500000	-4.306656 
254.000000	-4.469309 
254.500000	-4.373372 
255.000000	-3.920463 
255.500000	-3.378886 
256.000000	-2.847087 
256.500000	-2.316686 
257.000000	-1.978402 
257.500000	-2.222237 
258.000000	-2.448324 
258.500000	-2.539578 
259.000000	-2.741241 
259.500000	-3.000598 
260.000000	-3.186563 
260.500000	-2.951750 
261.000000	-2.637015 
261.500000	-1.947466 
262.000000	-1.648123 
262.500000	-1.401911 
263.000000	-1.103870 
263.500000	-1.028096 
264.000000	-1.436646 
264.500000	-2.202468 
265.000000	-2.994430 
265.500000	-3.641442 
266.000000	-3.826896 
266.500000	-3.808533 
267.000000	-3.395610 
267.500000	-2.657986 
268.000000	-1.868290 
268.500000	-1.059904 
269.000000	-0.444434 
269.500000	-0.193280 
270.000000	-0.169920 
270.500000	-0.316902 
271.000000	-0.625668 
271.500000	-0.885400 
272.000000	-1.326446 
272.500000	-2.107562 
273.000000	-2.877060 
273.500000	-3.357437 
274.000000	-3.759029 
274.500000	-4.192177 
275.000000	-4.222987 
275.500000	-4.074271 
276.000000	-3.475265 
276.500000	-2.756745 
277.000000	-2.285094 
277.500000	-1.988238 
278.000000	-1.651585 
278.500000	-1.330944 
279.000000	-1.582579 
279.500000	-1.461645 
280.000000	-1.290617 
280.500000	-1.009270 
281.000000	-0.766901 
281.500000	-0.486618 
282.000000	-0.482599 
282.500000	-0.425189 
283.000000	-0.355580 
283.500000	-0.998454 
284.000000	-1.412348 
284.500000	-1.811464 
285.000000	-2.249639 
285.500000	-2.636273 
286.000000	-2.737552 
286.500000	-2.686248 
287.000000	-2.406124 
287.500000	-2.090609 
288.000000	-2.076136 
288.500000	-2.040237 
289.000000	-1.889313 
289.500000	-1.822588 
290.000000	-2.001998 
290.500000	-2.158379 
291.000000	-2.378031 
291.500000	-2.517434 
292.000000	-2.669393 
292.500000	-2.946271 
293.000000	-3.300350 
293.500000	-3.355163 
294.000000	-3.277241 
294.500000	-2.792072 
295.000000	-2.120206 
295.500000	-1.218044 
296.000000	0.215449  
296.500000	1.722573  
297.000000	2.846987  
297.500000	3.454747  
298.000000	3.899060  
298.500000	3.882779  
299.000000	3.816014  
299.500000	3.493743  
300.000000	2.927292  
300.500000	2.371975  
301.000000	1.850635  
301.500000	0.998049  
302.000000	0.138790  
302.500000	-0.368154 
303.000000	-0.732857 
303.500000	-0.706128 
304.000000	-0.579514 
304.500000	-0.185988 
305.000000	0.402159  
305.500000	0.846446  
306.000000	0.705218  
306.500000	0.460559  
307.000000	0.407026  
307.500000	0.307148  
308.000000	0.094642  
308.500000	0.017695  
309.000000	0.394951  
309.500000	1.097023  
310.000000	1.688891  
310.500000	1.955395  
311.000000	2.238664  
311.500000	2.843683  
312.000000	3.324024  
312.500000	3.541296  
313.000000	3.618062  
313.500000	3.650207  
314.000000	3.932417  
314.500000	3.996252  
315.000000	4.013767  
315.500000	4.144713  
316.000000	4.578794  
316.500000	5.217021  
317.000000	5.631959  
317.500000	5.954833  
318.000000	6.200526  
318.500000	6.548374  
319.000000	6.536526  
319.500000	6.601618  
320.000000	6.785624  
320.500000	6.981194  
321.000000	7.397106  
321.500000	7.772014  
322.000000	8.108363  
322.500000	8.392180  
323.000000	8.596417  
323.500000	8.493057  
324.000000	8.366473  
324.500000	8.173814  
325.000000	7.910840  
325.500000	7.937217  
326.000000	7.976848  
326.500000	8.020130  
327.000000	8.202166  
327.500000	8.468626  
328.000000	8.732534  
328.500000	9.177473  
329.000000	9.601004  
329.500000	10.080285 
330.000000	10.725974 
330.500000	11.188489 
331.000000	11.477417 
331.500000	11.579018 
332.000000	11.431265 
332.500000	11.160444 
333.000000	10.922803 
333.500000	10.699823 
334.000000	10.561588 
334.500000	10.552785 
335.000000	10.670949 
335.500000	10.868058 
336.000000	11.035375 
336.500000	11.288551 
337.000000	11.585644 
337.500000	12.044107 
338.000000	12.599747 
338.500000	13.347288 
339.000000	14.117535 
339.500000	14.583457 
340.000000	14.957840 
340.500000	14.979882 
341.000000	14.838890 
341.500000	14.542377 
342.000000	14.237565 
342.500000	13.883922 
343.000000	13.722443 
343.500000	13.878568 
344.000000	13.952387 
344.500000	14.008270 
345.000000	13.908567 
345.500000	13.912197 
346.000000	13.989433 
346.500000	14.231047 
347.000000	14.606028 
347.500000	15.022953 
348.000000	15.989308 
348.500000	17.091826 
349.000000	18.200320 
349.500000	19.105300 
350.000000	19.791928 
350.500000	20.384646 
351.000000	20.881048 
351.500000	21.393613 
352.000000	21.578390 
352.500000	21.860294 
353.000000	22.414361 
353.500000	23.078496 
354.000000	23.933840 
354.500000	24.736066 
355.000000	25.879827 
355.500000	27.551916 
356.000000	29.818879 
356.500000	32.186066 
357.000000	34.542733 
357.500000	36.773986 
358.000000	38.749925 
358.500000	40.454031 
359.000000	41.261751 
359.500000	41.385954 
360.000000	41.347729 
360.500000	41.480223 
361.000000	41.894707 
361.500000	42.593126 
362.000000	43.509671 
362.500000	44.592488 
363.000000	45.955139 
363.500000	46.965458 
364.000000	47.259376 
364.500000	47.004765 
365.000000	46.387333 
365.500000	45.561172 
366.000000	44.506975 
366.500000	43.211674 
367.000000	42.065762 
367.500000	41.279654 
368.000000	40.878214 
368.500000	40.556698 
369.000000	40.334986 
369.500000	40.260138 
370.000000	40.503065 
370.500000	40.770047 
371.000000	40.708731 
371.500000	40.551218 
372.000000	40.252939 
372.500000	40.191624 
373.000000	40.185364 
373.500000	40.055736 
374.000000	40.001634 
374.500000	40.371273 
375.000000	41.070541 
375.500000	41.816200 
376.000000	42.654027 
376.500000	43.141673 
377.000000	43.589556 
377.500000	44.172447 
378.000000	44.678972 
378.500000	44.937547 
379.000000	45.003299 
379.500000	44.983890 
380.000000	44.984433 
380.500000	45.228528 
381.000000	45.064947 
381.500000	44.471141 
382.000000	43.823122 
382.500000	43.300471 
383.000000	42.759261 
383.500000	41.919612 
384.000000	40.831895 
384.500000	39.697770 
385.000000	38.948698 
385.500000	38.342379 
386.000000	37.535398 
386.500000	36.533234 
387.000000	35.589468 
387.500000	34.646076 
388.000000	33.367328 
388.500000	31.852754 
389.000000	30.003038 
389.500000	28.191605 
390.000000	26.463274 
390.500000	24.815478 
391.000000	23.171564 
391.500000	21.711491 
392.000000	20.449194 
392.500000	19.304111 
393.000000	18.417250 
393.500000	17.648325 
394.000000	17.054711 
394.500000	16.605941 
395.000000	16.352977 
395.500000	16.185895 
396.000000	16.172360 
396.500000	16.180286 
397.000000	16.170838 
397.500000	16.151013 
398.000000	15.988067 
398.500000	15.789387 
399.000000	15.414274 
399.500000	14.903730 
400.000000	14.191330 
400.500000	13.491061 
401.000000	12.798878 
401.500000	12.227582 
402.000000	11.803906 
402.500000	11.511889 
403.000000	11.407467 
403.500000	11.340387 
404.000000	11.256773 
404.500000	11.064902 
405.000000	10.785694 
405.500000	10.523264 
406.000000	10.202830 
406.500000	9.879527  
407.000000	9.552446  
407.500000	9.285055  
408.000000	8.968909  
408.500000	8.672768  
409.000000	8.415587  
409.500000	8.154330  
410.000000	8.035507  
410.500000	7.920932  
411.000000	7.816977  
411.500000	7.779313  
412.000000	7.825466  
412.500000	7.905926  
413.000000	8.097071  
413.500000	8.304087  
414.000000	8.435004  
414.500000	8.650273  
415.000000	8.871352  
415.500000	9.035356  
416.000000	9.210562  
416.500000	9.337059  
417.000000	9.475872  
417.500000	9.766835  
418.000000	10.137146 
418.500000	10.467758 
419.000000	10.766110 
419.500000	11.058459 
420.000000	11.317510 
420.500000	11.583500 
421.000000	11.677624 
421.500000	11.722502 
422.000000	11.919714 
422.500000	12.210648 
423.000000	12.577780 
423.500000	12.947816 
424.000000	13.333920 
424.500000	13.705938 
425.000000	14.184244 
425.500000	14.571675 
426.000000	14.915882 
426.500000	15.355322 
427.000000	15.850791 
427.500000	16.325902 
428.000000	16.723876 
428.500000	17.083858 
429.000000	17.346285 
429.500000	17.636235 
430.000000	17.962231 
430.500000	18.468687 
431.000000	19.270291 
431.500000	20.433763 
432.000000	21.823030 
432.500000	23.604345 
433.000000	25.651664 
433.500000	27.719574 
434.000000	29.712331 
434.500000	31.485861 
435.000000	33.027943 
435.500000	34.370927 
436.000000	35.491208 
436.500000	36.150283 
437.000000	36.617389 
437.500000	36.968713 
438.000000	37.197087 
438.500000	37.316463 
439.000000	37.366825 
439.500000	37.423349 
440.000000	37.790253 
440.500000	38.394232 
441.000000	39.161643 
441.500000	40.120806 
442.000000	41.246113 
442.500000	42.502731 
443.000000	43.859241 
443.500000	45.177744 
444.000000	46.103905 
444.500000	46.908249 

