PE FL                   SPECTRUM    ASCII       PEDS        1.60        
  -1
PM7F57~1
23/10/10
11:12:14.00
23/10/10
11:12:14.00


444.500000
1









LS55
40.00
5.00
5.00
SCAN
1
20
100
100
0
500
0
2
0
1
7
ON
500 450 
1 0 0
#HDR
-1
-1
#GR
NM

0.00002384185791015625
0.0
300.000000
0.500000
290
8
108.002495
-0.084073
#DATA
300.000000	27.349000  
300.500000	27.225331  
301.000000	27.053102  
301.500000	27.234521  
302.000000	28.269707  
302.500000	30.010292  
303.000000	32.172065  
303.500000	34.022820  
304.000000	35.566252  
304.500000	37.290037  
305.000000	38.969617  
305.500000	40.278315  
306.000000	40.990385  
306.500000	41.552508  
307.000000	42.769741  
307.500000	44.279014  
308.000000	45.976915  
308.500000	47.786112  
309.000000	50.290703  
309.500000	52.956607  
310.000000	55.875324  
310.500000	58.417258  
311.000000	60.473863  
311.500000	62.586036  
312.000000	63.794111  
312.500000	64.354653  
313.000000	64.556832  
313.500000	65.048741  
314.000000	65.424189  
314.500000	66.189850  
315.000000	67.220995  
315.500000	68.619380  
316.000000	70.458660  
316.500000	71.847666  
317.000000	73.073135  
317.500000	74.285949  
318.000000	75.837218  
318.500000	77.193917  
319.000000	78.690714  
319.500000	80.433981  
320.000000	82.122200  
320.500000	84.289121  
321.000000	86.089435  
321.500000	87.963070  
322.000000	89.547496  
322.500000	90.927048  
323.000000	92.171818  
323.500000	93.453759  
324.000000	95.031844  
324.500000	96.282837  
325.000000	98.424344  
325.500000	100.695251 
326.000000	103.406247 
326.500000	105.902030 
327.000000	107.455077 
327.500000	108.002495 
328.000000	107.559960 
328.500000	106.158028 
329.000000	103.243813 
329.500000	99.949576  
330.000000	96.417687  
330.500000	93.157237  
331.000000	90.558650  
331.500000	87.992410  
332.000000	85.650251  
332.500000	83.469212  
333.000000	81.108486  
333.500000	78.161186  
334.000000	74.854526  
334.500000	70.939891  
335.000000	66.344950  
335.500000	61.756947  
336.000000	57.039086  
336.500000	52.432711  
337.000000	48.136467  
337.500000	44.074909  
338.000000	40.509149  
338.500000	37.450768  
339.000000	34.718781  
339.500000	31.907502  
340.000000	29.152441  
340.500000	26.375314  
341.000000	23.613323  
341.500000	21.069717  
342.000000	18.720068  
342.500000	16.521880  
343.000000	14.736787  
343.500000	13.350810  
344.000000	12.230265  
344.500000	11.330582  
345.000000	10.552141  
345.500000	9.831804   
346.000000	9.289170   
346.500000	8.873257   
347.000000	8.411952   
347.500000	7.898648   
348.000000	7.392974   
348.500000	6.838750   
349.000000	6.204232   
349.500000	5.535334   
350.000000	4.779294   
350.500000	4.013551   
351.000000	3.443340   
351.500000	2.959467   
352.000000	2.775541   
352.500000	2.774669   
353.000000	2.813285   
353.500000	2.889837   
354.000000	2.947514   
354.500000	2.982014   
355.000000	2.904054   
355.500000	2.834859   
356.000000	2.689495   
356.500000	2.624747   
357.000000	2.620676   
357.500000	2.546879   
358.000000	2.487500   
358.500000	2.372710   
359.000000	2.242815   
359.500000	2.020517   
360.000000	1.846642   
360.500000	1.693736   
361.000000	1.581166   
361.500000	1.524278   
362.000000	1.471998   
362.500000	1.441358   
363.000000	1.366029   
363.500000	1.266098   
364.000000	1.159083   
364.500000	1.113911   
365.000000	1.111335   
365.500000	1.102187   
366.000000	1.084715   
366.500000	1.121401   
367.000000	1.134693   
367.500000	1.127721   
368.000000	1.109206   
368.500000	1.029219   
369.000000	0.931411   
369.500000	0.839578   
370.000000	0.752776   
370.500000	0.628263   
371.000000	0.594993   
371.500000	0.542430   
372.000000	0.563418   
372.500000	0.606323   
373.000000	0.668066   
373.500000	0.682618   
374.000000	0.694579   
374.500000	0.744722   
375.000000	0.761399   
375.500000	0.787840   
376.000000	0.668649   
376.500000	0.579554   
377.000000	0.511149   
377.500000	0.497313   
378.000000	0.434780   
378.500000	0.379285   
379.000000	0.353314   
379.500000	0.368577   
380.000000	0.459350   
380.500000	0.457435   
381.000000	0.451104   
381.500000	0.381312   
382.000000	0.366802   
382.500000	0.330421   
383.000000	0.270727   
383.500000	0.216512   
384.000000	0.241714   
384.500000	0.354665   
385.000000	0.484870   
385.500000	0.632541   
386.000000	0.717480   
386.500000	0.777212   
387.000000	0.748120   
387.500000	0.625391   
388.000000	0.448765   
388.500000	0.290336   
389.000000	0.157951   
389.500000	0.067123   
390.000000	0.049935   
390.500000	0.132130   
391.000000	0.287118   
391.500000	0.432396   
392.000000	0.491267   
392.500000	0.528933   
393.000000	0.552334   
393.500000	0.540353   
394.000000	0.495441   
394.500000	0.414435   
395.000000	0.390113   
395.500000	0.410334   
396.000000	0.476274   
396.500000	0.512425   
397.000000	0.526555   
397.500000	0.520271   
398.000000	0.488262   
398.500000	0.484501   
399.000000	0.451156   
399.500000	0.410877   
400.000000	0.390662   
400.500000	0.396995   
401.000000	0.410236   
401.500000	0.421485   
402.000000	0.413059   
402.500000	0.337398   
403.000000	0.254119   
403.500000	0.170868   
404.000000	0.067229   
404.500000	-0.035223  
405.000000	-0.082842  
405.500000	-0.084073  
406.000000	-0.051926  
406.500000	0.027703   
407.000000	0.114121   
407.500000	0.188439   
408.000000	0.292136   
408.500000	0.384326   
409.000000	0.420992   
409.500000	0.455815   
410.000000	0.441230   
410.500000	0.379909   
411.000000	0.281654   
411.500000	0.209852   
412.000000	0.117723   
412.500000	0.072885   
413.000000	0.102496   
413.500000	0.154663   
414.000000	0.251611   
414.500000	0.395620   
415.000000	0.520610   
415.500000	0.599361   
416.000000	0.670540   
416.500000	0.687552   
417.000000	0.658178   
417.500000	0.639180   
418.000000	0.623641   
418.500000	0.605596   
419.000000	0.611712   
419.500000	0.611163   
420.000000	0.578619   
420.500000	0.532776   
421.000000	0.469276   
421.500000	0.371804   
422.000000	0.298730   
422.500000	0.243849   
423.000000	0.199216   
423.500000	0.204299   
424.000000	0.248626   
424.500000	0.315142   
425.000000	0.390976   
425.500000	0.455789   
426.000000	0.485497   
426.500000	0.491362   
427.000000	0.454749   
427.500000	0.405153   
428.000000	0.345467   
428.500000	0.306183   
429.000000	0.271369   
429.500000	0.262718   
430.000000	0.284114   
430.500000	0.329926   
431.000000	0.380886   
431.500000	0.419205   
432.000000	0.456323   
432.500000	0.468439   
433.000000	0.480660   
433.500000	0.476578   
434.000000	0.459959   
434.500000	0.442986   
435.000000	0.431733   
435.500000	0.410716   
436.000000	0.379028   
436.500000	0.365596   
437.000000	0.353898   
437.500000	0.342024   
438.000000	0.339962   
438.500000	0.355012   
439.000000	0.375723   
439.500000	0.387574   
440.000000	0.386861   
440.500000	0.371787   
441.000000	0.357729   
441.500000	0.342530   
442.000000	0.291173   
442.500000	0.236442   
443.000000	0.202562   
443.500000	0.187294   
444.000000	0.190789   
444.500000	0.200265   

