PE FL                   SPECTRUM    ASCII       PEDS        1.60        
  -1
PM4F57~1
23/10/10
11:10:31.00
23/10/10
11:10:31.00


444.500000
1









LS55
25.00
5.00
5.00
SCAN
1
20
100
100
0
500
0
2
0
1
7
ON
500 450 
1 0 0
#HDR
-1
-1
#GR
NM

0.00002384185791015625
0.0
300.000000
0.500000
290
8
107.293763
-0.289079
#DATA
300.000000	0.000000   
300.500000	-0.109736  
301.000000	0.023971   
301.500000	0.512696   
302.000000	1.139884   
302.500000	1.503188   
303.000000	2.016381   
303.500000	2.751347   
304.000000	3.469615   
304.500000	4.082291   
305.000000	4.664558   
305.500000	5.393448   
306.000000	6.472446   
306.500000	7.985091   
307.000000	9.231032   
307.500000	10.562286  
308.000000	11.928301  
308.500000	13.196684  
309.000000	14.222861  
309.500000	14.818340  
310.000000	15.044657  
310.500000	15.290922  
311.000000	15.907732  
311.500000	16.628979  
312.000000	17.584296  
312.500000	18.756672  
313.000000	20.138952  
313.500000	21.732521  
314.000000	23.283949  
314.500000	24.831274  
315.000000	26.220027  
315.500000	27.454381  
316.000000	28.865190  
316.500000	30.737677  
317.000000	32.974784  
317.500000	35.318183  
318.000000	37.740254  
318.500000	40.485394  
319.000000	43.538124  
319.500000	46.388844  
320.000000	48.906402  
320.500000	51.114844  
321.000000	53.613968  
321.500000	56.521842  
322.000000	59.618379  
322.500000	62.796023  
323.000000	66.605494  
323.500000	71.447906  
324.000000	76.346534  
324.500000	80.959095  
325.000000	85.102042  
325.500000	89.131599  
326.000000	92.764273  
326.500000	95.947974  
327.000000	98.190139  
327.500000	100.204065 
328.000000	102.486146 
328.500000	104.304976 
329.000000	105.661503 
329.500000	106.648206 
330.000000	107.293763 
330.500000	107.128019 
331.000000	106.568184 
331.500000	105.276267 
332.000000	103.499159 
332.500000	101.633387 
333.000000	99.152000  
333.500000	95.952973  
334.000000	92.151281  
334.500000	87.901114  
335.000000	83.153141  
335.500000	78.424789  
336.000000	73.545109  
336.500000	68.769408  
337.000000	64.365043  
337.500000	60.093314  
338.000000	56.014891  
338.500000	51.784426  
339.000000	47.516017  
339.500000	43.197849  
340.000000	39.091018  
340.500000	35.196774  
341.000000	31.524538  
341.500000	28.249773  
342.000000	25.530729  
342.500000	23.293712  
343.000000	21.071247  
343.500000	18.971035  
344.000000	16.956214  
344.500000	15.097418  
345.000000	13.386564  
345.500000	11.944578  
346.000000	10.753355  
346.500000	9.954291   
347.000000	9.372932   
347.500000	8.708101   
348.000000	8.200172   
348.500000	7.740594   
349.000000	7.149737   
349.500000	6.417118   
350.000000	5.610954   
350.500000	4.773690   
351.000000	4.086390   
351.500000	3.537199   
352.000000	3.003287   
352.500000	2.493839   
353.000000	2.176281   
353.500000	1.951107   
354.000000	1.829555   
354.500000	1.594306   
355.000000	1.279843   
355.500000	1.022911   
356.000000	0.846196   
356.500000	0.689929   
357.000000	0.542813   
357.500000	0.483706   
358.000000	0.525545   
358.500000	0.724978   
359.000000	0.820466   
359.500000	0.789254   
360.000000	0.734051   
360.500000	0.699131   
361.000000	0.640607   
361.500000	0.575227   
362.000000	0.519802   
362.500000	0.538392   
363.000000	0.597345   
363.500000	0.667707   
364.000000	0.658157   
364.500000	0.666249   
365.000000	0.672034   
365.500000	0.603758   
366.000000	0.561104   
366.500000	0.502640   
367.000000	0.402563   
367.500000	0.236237   
368.000000	0.073479   
368.500000	-0.129923  
369.000000	-0.236383  
369.500000	-0.289079  
370.000000	-0.242254  
370.500000	-0.048914  
371.000000	0.222177   
371.500000	0.502885   
372.000000	0.707242   
372.500000	0.812274   
373.000000	0.787094   
373.500000	0.761362   
374.000000	0.654131   
374.500000	0.476906   
375.000000	0.356236   
375.500000	0.253608   
376.000000	0.224414   
376.500000	0.249915   
377.000000	0.330295   
377.500000	0.421416   
378.000000	0.600959   
378.500000	0.814844   
379.000000	0.959757   
379.500000	1.121805   
380.000000	1.187100   
380.500000	1.257103   
381.000000	1.288762   
381.500000	1.290246   
382.000000	1.246297   
382.500000	1.145572   
383.000000	1.068339   
383.500000	0.938173   
384.000000	0.810606   
384.500000	0.633134   
385.000000	0.489804   
385.500000	0.362628   
386.000000	0.278804   
386.500000	0.297154   
387.000000	0.326171   
387.500000	0.351181   
388.000000	0.400711   
388.500000	0.475231   
389.000000	0.550174   
389.500000	0.605079   
390.000000	0.658692   
390.500000	0.718145   
391.000000	0.849270   
391.500000	0.957968   
392.000000	1.006221   
392.500000	1.050589   
393.000000	1.077684   
393.500000	1.075720   
394.000000	1.043369   
394.500000	1.017580   
395.000000	0.984773   
395.500000	0.979776   
396.000000	1.005386   
396.500000	1.015226   
397.000000	1.006926   
397.500000	1.005177   
398.000000	0.967837   
398.500000	0.905518   
399.000000	0.848728   
399.500000	0.796603   
400.000000	0.774901   
400.500000	0.814703   
401.000000	0.896526   
401.500000	1.007164   
402.000000	1.147260   
402.500000	1.211170   
403.000000	1.230948   
403.500000	1.206362   
404.000000	1.139568   
404.500000	1.010686   
405.000000	0.870459   
405.500000	0.752549   
406.000000	0.665575   
406.500000	0.620078   
407.000000	0.561825   
407.500000	0.540920   
408.000000	0.558894   
408.500000	0.604077   
409.000000	0.639296   
409.500000	0.658654   
410.000000	0.648509   
410.500000	0.627576   
411.000000	0.584559   
411.500000	0.472552   
412.000000	0.384506   
412.500000	0.338836   
413.000000	0.354167   
413.500000	0.431816   
414.000000	0.543687   
414.500000	0.652434   
415.000000	0.749845   
415.500000	0.785954   
416.000000	0.749811   
416.500000	0.678181   
417.000000	0.592670   
417.500000	0.512152   
418.000000	0.454632   
418.500000	0.436897   
419.000000	0.446918   
419.500000	0.478375   
420.000000	0.500905   
420.500000	0.551434   
421.000000	0.577865   
421.500000	0.567786   
422.000000	0.577740   
422.500000	0.579220   
423.000000	0.579412   
423.500000	0.586492   
424.000000	0.586952   
424.500000	0.585810   
425.000000	0.618779   
425.500000	0.627763   
426.000000	0.626730   
426.500000	0.659257   
427.000000	0.682156   
427.500000	0.694879   
428.000000	0.711001   
428.500000	0.709745   
429.000000	0.713718   
429.500000	0.722538   
430.000000	0.725892   
430.500000	0.732010   
431.000000	0.758880   
431.500000	0.780787   
432.000000	0.805000   
432.500000	0.817392   
433.000000	0.822879   
433.500000	0.823994   
434.000000	0.812976   
434.500000	0.792076   
435.000000	0.785263   
435.500000	0.804919   
436.000000	0.818876   
436.500000	0.844464   
437.000000	0.853356   
437.500000	0.852933   
438.000000	0.814819   
438.500000	0.742068   
439.000000	0.651337   
439.500000	0.566613   
440.000000	0.502085   
440.500000	0.447532   
441.000000	0.431445   
441.500000	0.436622   
442.000000	0.478482   
442.500000	0.527558   
443.000000	0.572396   
443.500000	0.612849   
444.000000	0.646300   
444.500000	0.669008   

