PE FL                   SPECTRUM    ASCII       PEDS        1.60        
  -1
PM5F57~1
23/10/10
11:11:06.00
23/10/10
11:11:06.00


444.500000
1









LS55
30.00
5.00
5.00
SCAN
1
20
100
100
0
500
0
2
0
1
7
ON
500 450 
1 0 0
#HDR
-1
-1
#GR
NM

0.00002384185791015625
0.0
300.000000
0.500000
290
8
111.083812
-0.295661
#DATA
300.000000	7.252000   
300.500000	7.155439   
301.000000	7.314652   
301.500000	7.852974   
302.000000	8.861540   
302.500000	10.659900  
303.000000	12.639685  
303.500000	14.556174  
304.000000	16.382712  
304.500000	17.960892  
305.000000	19.208084  
305.500000	20.149468  
306.000000	20.798955  
306.500000	21.082673  
307.000000	21.424379  
307.500000	21.749053  
308.000000	22.127322  
308.500000	22.374037  
309.000000	22.536853  
309.500000	22.596386  
310.000000	22.676065  
310.500000	23.055924  
311.000000	23.707517  
311.500000	24.817259  
312.000000	26.371216  
312.500000	28.789777  
313.000000	31.567937  
313.500000	34.700002  
314.000000	37.740938  
314.500000	40.677797  
315.000000	43.255784  
315.500000	45.612281  
316.000000	48.203593  
316.500000	50.608428  
317.000000	53.449303  
317.500000	56.292757  
318.000000	59.394961  
318.500000	62.583644  
319.000000	65.730400  
319.500000	68.741285  
320.000000	71.540469  
320.500000	74.421153  
321.000000	76.915670  
321.500000	79.115184  
322.000000	81.063578  
322.500000	83.261573  
323.000000	85.794514  
323.500000	88.689785  
324.000000	92.122144  
324.500000	95.973712  
325.000000	100.019438 
325.500000	103.928421 
326.000000	106.937397 
326.500000	108.993458 
327.000000	110.406980 
327.500000	111.083812 
328.000000	110.896350 
328.500000	110.297100 
329.000000	109.750273 
329.500000	109.043514 
330.000000	108.349171 
330.500000	107.247517 
331.000000	105.769310 
331.500000	104.052099 
332.000000	101.887800 
332.500000	99.272845  
333.000000	96.183232  
333.500000	92.712442  
334.000000	88.771271  
334.500000	84.507087  
335.000000	80.032299  
335.500000	75.324480  
336.000000	70.420994  
336.500000	65.586786  
337.000000	60.983871  
337.500000	56.485622  
338.000000	51.849098  
338.500000	47.325095  
339.000000	42.975951  
339.500000	38.980551  
340.000000	35.330289  
340.500000	31.731084  
341.000000	28.462933  
341.500000	25.645958  
342.000000	23.121136  
342.500000	20.586555  
343.000000	18.351349  
343.500000	16.438905  
344.000000	14.920020  
344.500000	13.624847  
345.000000	12.385037  
345.500000	11.318354  
346.000000	10.361384  
346.500000	9.519774   
347.000000	8.552195   
347.500000	7.717858   
348.000000	6.844736   
348.500000	6.040863   
349.000000	5.352828   
349.500000	4.762641   
350.000000	4.315267   
350.500000	4.007862   
351.000000	3.784373   
351.500000	3.455607   
352.000000	3.170093   
352.500000	2.793863   
353.000000	2.375192   
353.500000	1.969661   
354.000000	1.516670   
354.500000	1.073534   
355.000000	0.824265   
355.500000	0.720445   
356.000000	0.691157   
356.500000	0.792175   
357.000000	0.864131   
357.500000	0.909182   
358.000000	1.020552   
358.500000	0.967857   
359.000000	0.818745   
359.500000	0.693778   
360.000000	0.613140   
360.500000	0.644813   
361.000000	0.690714   
361.500000	0.648758   
362.000000	0.572087   
362.500000	0.603184   
363.000000	0.557728   
363.500000	0.484027   
364.000000	0.350611   
364.500000	0.208809   
365.000000	0.082480   
365.500000	0.015864   
366.000000	-0.135508  
366.500000	-0.293752  
367.000000	-0.295661  
367.500000	-0.238822  
368.000000	-0.158350  
368.500000	-0.085847  
369.000000	0.049745   
369.500000	0.191481   
370.000000	0.287802   
370.500000	0.344977   
371.000000	0.311902   
371.500000	0.258964   
372.000000	0.291686   
372.500000	0.345596   
373.000000	0.411513   
373.500000	0.501073   
374.000000	0.623583   
374.500000	0.707888   
375.000000	0.787757   
375.500000	0.814317   
376.000000	0.766225   
376.500000	0.793959   
377.000000	0.864758   
377.500000	0.910679   
378.000000	0.915703   
378.500000	0.956287   
379.000000	0.952286   
379.500000	0.905325   
380.000000	0.857146   
380.500000	0.781370   
381.000000	0.748231   
381.500000	0.792348   
382.000000	0.817719   
382.500000	0.834615   
383.000000	0.859977   
383.500000	0.908926   
384.000000	0.872095   
384.500000	0.760839   
385.000000	0.601140   
385.500000	0.452457   
386.000000	0.350660   
386.500000	0.256876   
387.000000	0.215440   
387.500000	0.224892   
388.000000	0.290975   
388.500000	0.385555   
389.000000	0.468507   
389.500000	0.502686   
390.000000	0.527374   
390.500000	0.541469   
391.000000	0.491049   
391.500000	0.435217   
392.000000	0.372781   
392.500000	0.308179   
393.000000	0.331764   
393.500000	0.430761   
394.000000	0.516079   
394.500000	0.651149   
395.000000	0.770050   
395.500000	0.825929   
396.000000	0.856694   
396.500000	0.856367   
397.000000	0.790822   
397.500000	0.682283   
398.000000	0.590140   
398.500000	0.487388   
399.000000	0.444366   
399.500000	0.406465   
400.000000	0.402414   
400.500000	0.432661   
401.000000	0.477914   
401.500000	0.525725   
402.000000	0.543622   
402.500000	0.555561   
403.000000	0.547496   
403.500000	0.580152   
404.000000	0.579751   
404.500000	0.581358   
405.000000	0.622382   
405.500000	0.706073   
406.000000	0.785054   
406.500000	0.825039   
407.000000	0.803522   
407.500000	0.759920   
408.000000	0.722497   
408.500000	0.649861   
409.000000	0.527786   
409.500000	0.436003   
410.000000	0.425899   
410.500000	0.405977   
411.000000	0.406238   
411.500000	0.399583   
412.000000	0.387269   
412.500000	0.400186   
413.000000	0.444410   
413.500000	0.466118   
414.000000	0.484382   
414.500000	0.556769   
415.000000	0.609023   
415.500000	0.657243   
416.000000	0.696863   
416.500000	0.689185   
417.000000	0.650297   
417.500000	0.598001   
418.000000	0.542118   
418.500000	0.492650   
419.000000	0.492502   
419.500000	0.497121   
420.000000	0.529552   
420.500000	0.610873   
421.000000	0.687299   
421.500000	0.726301   
422.000000	0.727707   
422.500000	0.673977   
423.000000	0.595774   
423.500000	0.541375   
424.000000	0.491722   
424.500000	0.458717   
425.000000	0.469990   
425.500000	0.530285   
426.000000	0.591003   
426.500000	0.651395   
427.000000	0.680972   
427.500000	0.689575   
428.000000	0.698627   
428.500000	0.703980   
429.000000	0.706016   
429.500000	0.704663   
430.000000	0.738640   
430.500000	0.768110   
431.000000	0.780097   
431.500000	0.771084   
432.000000	0.742534   
432.500000	0.696344   
433.000000	0.655764   
433.500000	0.617448   
434.000000	0.589949   
434.500000	0.596415   
435.000000	0.624224   
435.500000	0.642861   
436.000000	0.669123   
436.500000	0.696647   
437.000000	0.691114   
437.500000	0.662190   
438.000000	0.617312   
438.500000	0.579208   
439.000000	0.542549   
439.500000	0.516926   
440.000000	0.495851   
440.500000	0.491545   
441.000000	0.529035   
441.500000	0.575660   
442.000000	0.605342   
442.500000	0.615597   
443.000000	0.635897   
443.500000	0.640930   
444.000000	0.628640   
444.500000	0.584205   

