PE FL                   SPECTRUM    ASCII       PEDS        1.60        
  -1
PMFE67~1
23/10/10
11:13:23.00
23/10/10
11:13:23.00


444.500000
1









LS55
50.00
5.00
5.00
SCAN
1
20
100
100
0
500
0
2
0
1
7
ON
500 450 
1 0 0
#HDR
-1
-1
#GR
NM

0.00002384185791015625
0.0
300.000000
0.500000
290
8
81.231832
0.186926
#DATA
300.000000	59.160000 
300.500000	61.913819 
301.000000	64.809043 
301.500000	65.957200 
302.000000	66.774856 
302.500000	66.439293 
303.000000	65.656440 
303.500000	63.835716 
304.000000	62.684913 
304.500000	61.251276 
305.000000	60.244834 
305.500000	60.369708 
306.000000	60.515897 
306.500000	61.271169 
307.000000	62.002955 
307.500000	63.060307 
308.000000	64.087964 
308.500000	64.882649 
309.000000	65.452994 
309.500000	65.804833 
310.000000	66.351235 
310.500000	66.956972 
311.000000	67.673291 
311.500000	68.150291 
312.000000	68.572378 
312.500000	69.181614 
313.000000	69.336585 
313.500000	69.393529 
314.000000	68.970221 
314.500000	68.730195 
315.000000	68.750902 
315.500000	68.803078 
316.000000	68.861362 
316.500000	68.889254 
317.000000	69.190997 
317.500000	69.300849 
318.000000	69.337158 
318.500000	68.948051 
319.000000	68.757310 
319.500000	69.409497 
320.000000	70.845527 
320.500000	72.433683 
321.000000	74.311230 
321.500000	76.316780 
322.000000	78.184359 
322.500000	79.897907 
323.000000	80.727659 
323.500000	80.868259 
324.000000	80.895987 
324.500000	81.129272 
325.000000	81.041037 
325.500000	80.928071 
326.000000	80.829942 
326.500000	80.839561 
327.000000	81.146829 
327.500000	81.231832 
328.000000	81.016589 
328.500000	80.654125 
329.000000	80.173068 
329.500000	78.747691 
330.000000	76.986247 
330.500000	74.598790 
331.000000	71.696682 
331.500000	68.482496 
332.000000	64.988585 
332.500000	61.485642 
333.000000	58.249380 
333.500000	55.401334 
334.000000	52.199337 
334.500000	49.218734 
335.000000	46.154183 
335.500000	43.309867 
336.000000	40.458477 
336.500000	37.466348 
337.000000	34.538530 
337.500000	31.883078 
338.000000	29.600311 
338.500000	27.017911 
339.000000	24.563216 
339.500000	22.129908 
340.000000	19.871898 
340.500000	17.842115 
341.000000	15.802163 
341.500000	14.107181 
342.000000	12.792323 
342.500000	11.888417 
343.000000	11.050261 
343.500000	10.345403 
344.000000	9.765479  
344.500000	9.149801  
345.000000	8.566510  
345.500000	7.768781  
346.000000	6.923604  
346.500000	6.150055  
347.000000	5.442112  
347.500000	4.780702  
348.000000	4.232477  
348.500000	3.914194  
349.000000	3.612738  
349.500000	3.212296  
350.000000	2.836850  
350.500000	2.486600  
351.000000	2.204708  
351.500000	1.949398  
352.000000	1.734016  
352.500000	1.605517  
353.000000	1.610280  
353.500000	1.735315  
354.000000	1.740844  
354.500000	1.614469  
355.000000	1.366823  
355.500000	1.057221  
356.000000	0.782267  
356.500000	0.540163  
357.000000	0.400093  
357.500000	0.309237  
358.000000	0.403811  
358.500000	0.541400  
359.000000	0.598780  
359.500000	0.636964  
360.000000	0.565639  
360.500000	0.550041  
361.000000	0.604739  
361.500000	0.751278  
362.000000	0.840941  
362.500000	0.907286  
363.000000	0.939371  
363.500000	0.862843  
364.000000	0.793495  
364.500000	0.630982  
365.000000	0.440623  
365.500000	0.362009  
366.000000	0.362384  
366.500000	0.481452  
367.000000	0.708850  
367.500000	0.859013  
368.000000	0.894970  
368.500000	0.929927  
369.000000	0.928068  
369.500000	0.802810  
370.000000	0.734123  
370.500000	0.662010  
371.000000	0.666999  
371.500000	0.770119  
372.000000	0.830755  
372.500000	0.813488  
373.000000	0.827949  
373.500000	0.946418  
374.000000	1.023253  
374.500000	1.115664  
375.000000	1.214569  
375.500000	1.337943  
376.000000	1.492699  
376.500000	1.603269  
377.000000	1.610516  
377.500000	1.575615  
378.000000	1.612896  
378.500000	1.672257  
379.000000	1.715675  
379.500000	1.764046  
380.000000	1.868885  
380.500000	1.957968  
381.000000	2.021763  
381.500000	2.019127  
382.000000	1.901294  
382.500000	1.726310  
383.000000	1.590015  
383.500000	1.411455  
384.000000	1.214718  
384.500000	1.093079  
385.000000	1.017925  
385.500000	1.002704  
386.000000	1.114135  
386.500000	1.263030  
387.000000	1.396755  
387.500000	1.573278  
388.000000	1.717969  
388.500000	1.743083  
389.000000	1.715945  
389.500000	1.618967  
390.000000	1.460883  
390.500000	1.348827  
391.000000	1.273163  
391.500000	1.239013  
392.000000	1.329247  
392.500000	1.509493  
393.000000	1.676621  
393.500000	1.832980  
394.000000	1.951742  
394.500000	1.961632  
395.000000	1.906418  
395.500000	1.793432  
396.000000	1.630906  
396.500000	1.469472  
397.000000	1.378684  
397.500000	1.318752  
398.000000	1.300550  
398.500000	1.353987  
399.000000	1.378879  
399.500000	1.364448  
400.000000	1.328729  
400.500000	1.278559  
401.000000	1.223506  
401.500000	1.194245  
402.000000	1.188070  
402.500000	1.199872  
403.000000	1.268060  
403.500000	1.347167  
404.000000	1.397343  
404.500000	1.457284  
405.000000	1.491300  
405.500000	1.488857  
406.000000	1.439203  
406.500000	1.378520  
407.000000	1.316073  
407.500000	1.244238  
408.000000	1.181057  
408.500000	1.118651  
409.000000	1.065319  
409.500000	0.983370  
410.000000	0.873278  
410.500000	0.720125  
411.000000	0.554369  
411.500000	0.422627  
412.000000	0.294634  
412.500000	0.200858  
413.000000	0.186926  
413.500000	0.228702  
414.000000	0.298861  
414.500000	0.390660  
415.000000	0.470448  
415.500000	0.546594  
416.000000	0.594811  
416.500000	0.605432  
417.000000	0.572033  
417.500000	0.544821  
418.000000	0.510785  
418.500000	0.443557  
419.000000	0.361518  
419.500000	0.284072  
420.000000	0.263141  
420.500000	0.256419  
421.000000	0.255620  
421.500000	0.267423  
422.000000	0.291590  
422.500000	0.321150  
423.000000	0.345652  
423.500000	0.327627  
424.000000	0.280123  
424.500000	0.253989  
425.000000	0.228883  
425.500000	0.200550  
426.000000	0.194395  
426.500000	0.205553  
427.000000	0.214310  
427.500000	0.245156  
428.000000	0.269445  
428.500000	0.294113  
429.000000	0.329085  
429.500000	0.365781  
430.000000	0.385991  
430.500000	0.410732  
431.000000	0.450206  
431.500000	0.481889  
432.000000	0.521147  
432.500000	0.541651  
433.000000	0.534628  
433.500000	0.517178  
434.000000	0.482261  
434.500000	0.429126  
435.000000	0.359403  
435.500000	0.294136  
436.000000	0.253774  
436.500000	0.248696  
437.000000	0.263604  
437.500000	0.265277  
438.000000	0.280402  
438.500000	0.300045  
439.000000	0.322526  
439.500000	0.326216  
440.000000	0.295971  
440.500000	0.249142  
441.000000	0.215278  
441.500000	0.205341  
442.000000	0.200755  
442.500000	0.211056  
443.000000	0.243475  
443.500000	0.293719  
444.000000	0.354375  
444.500000	0.405807  

