##TITLE= 
##JCAMP-DX= 4.24
##DATA TYPE= FLUORESCENCE SPECTRUM
##ORIGIN= Exported PE Spectrum Data File
##OWNER= 
##DATE= 23/10/10
##TIME= 11:11:40.00
##SPECTROMETER/DATA SYSTEM= PERKIN-ELMER LS55 FL
##RESOLUTION= 1.000000
##DELTAX= 0.500000
##XUNITS= NANOMETERS
##YUNITS= 
##XFACTOR= 1.00
##YFACTOR= 0.00000023841857910156
##FIRSTX= 300.00
##LASTX= 444.50
##NPOINTS= 290
##FIRSTY= 20.92
##MAXY= 112.49
##MINY= -0.51
##XYDATA= (X++(Y..Y))
  300.000000  87782588   82045594   78326832   77437076   79728271   
  302.500000  84984518   91174028   97988516   104624865  109949615  
  305.000000  114135899  117545563  120745802  125188607  130609995  
  307.500000  136336027  141927510  147359541  152612170  158605353  
  310.000000  164014083  169682422  175749854  182868068  192122276  
  312.500000  202191222  211525718  220666710  230593466  237820811  
  315.000000  244061747  249243491  254749869  260732945  267028907  
  317.500000  273952834  283027099  294382795  305309209  316168374  
  320.000000  327265838  339962913  351039684  360811834  371030294  
  322.500000  380622289  388495802  395218374  400251632  406785821  
  325.000000  415618403  424815862  435057588  446859759  458131703  
  327.500000  466952438  471851120  471497474  467390930  459347201  
  330.000000  446084308  432067641  417606609  403173286  389965596  
  332.500000  377228290  365212991  353576217  341231828  325611074  
  335.000000  309222636  289822914  268564659  246227151  224023123  
  337.500000  203671966  185935611  172245244  160310557  149917035  
  340.000000  139600882  129726524  118984644  107695578  95951181   
  342.500000  84568954   74434495   66386267   59837000   54269948   
  345.000000  49593415   45081991   41112669   37538753   33960719   
  347.500000  30964136   28388798   26401512   24307997   22047136   
  350.000000  19393806   16767996   14104786   11413642   8939555    
  352.500000  6986217    6075839    5565023    5461586    5551965    
  355.000000  6216893    6830080    7350285    7489467    7491220    
  357.500000  7670447    7401836    6636246    5497356    4359236    
  360.000000  2726995    1141945    -489996    -1594476   -1948099   
  362.500000  -2175171   -2066735   -1423631   -378585    694493     
  365.000000  1684740    2208787    2760554    3635547    4265211    
  367.500000  4704253    5235074    5448359    5400522    5204843    
  370.000000  4602349    3629274    2499993    1393947    544884     
  372.500000  203251     6814       59046      720413     1710031    
  375.000000  2644462    2934282    2953240    2495382    2133698    
  377.500000  1859385    1501205    1340227    1463366    1746380    
  380.000000  1818865    2061388    1746627    1391180    1287526    
  382.500000  1239458    1154932    1233084    1389081    1528247    
  385.000000  1937287    1973972    1870871    1871647    1882394    
  387.500000  1716889    1609884    1388442    1180993    1228762    
  390.000000  1228750    1256174    1444352    1667114    1642513    
  392.500000  1537640    1255326    932619     714110     552101     
  395.000000  667424     1018211    1494576    1852359    2266180    
  397.500000  2623667    2806961    2775880    2489209    2209163    
  400.000000  1988623    1890593    1615832    1447292    1519983    
  402.500000  1738263    1771109    1716985    1637867    1709360    
  405.000000  1911431    1991796    2175854    2580329    3173496    
  407.500000  3535786    3648405    3348632    2927867    2430369    
  410.000000  1676238    1040083    653469     723312     1023691    
  412.500000  1322376    1545320    1854924    2239316    2400325    
  415.000000  2489900    2495336    2493323    2505577    2376954    
  417.500000  2006961    1634327    1363070    1116370    935374     
  420.000000  911518     965011     1156034    1376877    1480781    
  422.500000  1549806    1525527    1467603    1368860    1268142    
  425.000000  1140783    1014276    1001101    1039602    1140257    
  427.500000  1241954    1343923    1454386    1441018    1420279    
  430.000000  1476167    1560676    1711448    1878763    1986132    
  432.500000  2105683    2253882    2198255    2000932    1753769    
  435.000000  1467082    1180339    896773     635524     574382     
  437.500000  640204     757052     898715     1078691    1230006    
  440.000000  1424799    1608095    1701591    1775253    1772047    
  442.500000  1811601    1785551    1677217    1440721    1221721    
  
##END= 
