PE FL                   SPECTRUM    ASCII       PEDS        1.60        
  -1
PM117D~1
23/10/10
10:59:00.00
23/10/10
10:59:00.00


444.500000
1









LS55
15.00
5.00
5.00
SCAN
1
20
100
100
0
500
0
2
0
1
7
ON
500 450 
1 0 0
#HDR
-1
-1
#GR
NM

0.00002384185791015625
0.0
300.000000
0.500000
290
8
33.005870
-2.137753
#DATA
300.000000	3.096000  
300.500000	1.293470  
301.000000	-0.152452 
301.500000	-1.137313 
302.000000	-1.848994 
302.500000	-2.137753 
303.000000	-1.908537 
303.500000	-1.308262 
304.000000	-0.351917 
304.500000	0.546233  
305.000000	1.179630  
305.500000	1.719994  
306.000000	2.140943  
306.500000	2.195640  
307.000000	2.167885  
307.500000	2.077419  
308.000000	1.887607  
308.500000	1.922916  
309.000000	2.084344  
309.500000	2.471734  
310.000000	3.010015  
310.500000	3.760615  
311.000000	4.422644  
311.500000	5.186791  
312.000000	5.932382  
312.500000	6.334160  
313.000000	6.709323  
313.500000	6.943121  
314.000000	7.442606  
314.500000	7.891035  
315.000000	8.511824  
315.500000	9.300561  
316.000000	10.254752 
316.500000	11.286716 
317.000000	12.046232 
317.500000	12.723199 
318.000000	13.387628 
318.500000	14.372210 
319.000000	15.208246 
319.500000	16.017313 
320.000000	16.619033 
320.500000	17.137221 
321.000000	17.779757 
321.500000	18.364429 
322.000000	18.824699 
322.500000	19.345654 
323.000000	20.214232 
323.500000	21.307562 
324.000000	22.727898 
324.500000	24.223488 
325.000000	25.507454 
325.500000	26.912517 
326.000000	28.357834 
326.500000	29.585756 
327.000000	30.534013 
327.500000	31.283038 
328.000000	31.718368 
328.500000	32.230780 
329.000000	32.630650 
329.500000	32.627185 
330.000000	32.774528 
330.500000	32.835808 
331.000000	32.973224 
331.500000	33.005870 
332.000000	32.955382 
332.500000	32.308138 
333.000000	31.405385 
333.500000	30.212772 
334.000000	28.488991 
334.500000	26.926462 
335.000000	25.080243 
335.500000	23.357244 
336.000000	21.742227 
336.500000	20.259790 
337.000000	18.638393 
337.500000	17.114711 
338.000000	15.610579 
338.500000	14.007165 
339.000000	12.784277 
339.500000	11.802007 
340.000000	10.965336 
340.500000	10.384121 
341.000000	9.955666  
341.500000	9.625460  
342.000000	9.228108  
342.500000	8.832519  
343.000000	8.133705  
343.500000	7.402670  
344.000000	6.938712  
344.500000	6.405143  
345.000000	5.890058  
345.500000	5.301711  
346.000000	4.806525  
346.500000	4.279418  
347.000000	3.916862  
347.500000	3.427074  
348.000000	2.889827  
348.500000	2.649283  
349.000000	2.563816  
349.500000	2.497295  
350.000000	2.476095  
350.500000	2.500335  
351.000000	2.510261  
351.500000	2.610401  
352.000000	2.576794  
352.500000	2.507989  
353.000000	2.359788  
353.500000	2.205442  
354.000000	1.910758  
354.500000	1.624767  
355.000000	1.293962  
355.500000	0.990951  
356.000000	0.861478  
356.500000	0.867640  
357.000000	1.084534  
357.500000	1.332342  
358.000000	1.648179  
358.500000	1.884002  
359.000000	2.138870  
359.500000	2.237510  
360.000000	2.261898  
360.500000	2.216744  
361.000000	2.121792  
361.500000	2.032766  
362.000000	1.802822  
362.500000	1.539052  
363.000000	1.268371  
363.500000	1.135347  
364.000000	0.994831  
364.500000	0.954278  
365.000000	0.966737  
365.500000	1.130972  
366.000000	1.372786  
366.500000	1.490779  
367.000000	1.507710  
367.500000	1.444347  
368.000000	1.336880  
368.500000	1.154479  
369.000000	1.035119  
369.500000	0.895536  
370.000000	0.873340  
370.500000	0.940466  
371.000000	1.032404  
371.500000	1.077553  
372.000000	1.131276  
372.500000	1.177256  
373.000000	1.215016  
373.500000	1.281668  
374.000000	1.273837  
374.500000	1.239380  
375.000000	1.160709  
375.500000	1.124369  
376.000000	1.132072  
376.500000	1.216345  
377.000000	1.370201  
377.500000	1.496680  
378.000000	1.643152  
378.500000	1.787831  
379.000000	1.863600  
379.500000	1.831747  
380.000000	1.699001  
380.500000	1.535660  
381.000000	1.389400  
381.500000	1.290915  
382.000000	1.220062  
382.500000	1.207432  
383.000000	1.252298  
383.500000	1.309817  
384.000000	1.359875  
384.500000	1.356881  
385.000000	1.285199  
385.500000	1.187714  
386.000000	1.090377  
386.500000	1.019486  
387.000000	0.987574  
387.500000	0.977074  
388.000000	0.972272  
388.500000	0.988724  
389.000000	1.079992  
389.500000	1.130711  
390.000000	1.140306  
390.500000	1.110438  
391.000000	1.089479  
391.500000	1.099260  
392.000000	1.155641  
392.500000	1.211160  
393.000000	1.259001  
393.500000	1.376543  
394.000000	1.487943  
394.500000	1.517322  
395.000000	1.522094  
395.500000	1.487896  
396.000000	1.423553  
396.500000	1.417738  
397.000000	1.440622  
397.500000	1.473906  
398.000000	1.514880  
398.500000	1.584378  
399.000000	1.577377  
399.500000	1.527724  
400.000000	1.450256  
400.500000	1.351700  
401.000000	1.289262  
401.500000	1.271753  
402.000000	1.303851  
402.500000	1.353743  
403.000000	1.472165  
403.500000	1.544864  
404.000000	1.551542  
404.500000	1.529764  
405.000000	1.472561  
405.500000	1.405605  
406.000000	1.364575  
406.500000	1.351085  
407.000000	1.343655  
407.500000	1.400998  
408.000000	1.462499  
408.500000	1.472202  
409.000000	1.483698  
409.500000	1.480156  
410.000000	1.451257  
410.500000	1.413649  
411.000000	1.380461  
411.500000	1.333792  
412.000000	1.311674  
412.500000	1.276235  
413.000000	1.252555  
413.500000	1.264736  
414.000000	1.318221  
414.500000	1.368001  
415.000000	1.441201  
415.500000	1.527635  
416.000000	1.591004  
416.500000	1.622745  
417.000000	1.581807  
417.500000	1.491469  
418.000000	1.341156  
418.500000	1.213338  
419.000000	1.064949  
419.500000	0.960232  
420.000000	0.889492  
420.500000	0.863998  
421.000000	0.883095  
421.500000	0.934933  
422.000000	1.007850  
422.500000	1.079484  
423.000000	1.177351  
423.500000	1.230374  
424.000000	1.292007  
424.500000	1.343389  
425.000000	1.365631  
425.500000	1.347958  
426.000000	1.341104  
426.500000	1.315255  
427.000000	1.291869  
427.500000	1.286271  
428.000000	1.267544  
428.500000	1.270051  
429.000000	1.250435  
429.500000	1.195996  
430.000000	1.121723  
430.500000	1.053318  
431.000000	0.973599  
431.500000	0.917360  
432.000000	0.888066  
432.500000	0.865625  
433.000000	0.888456  
433.500000	0.928205  
434.000000	0.962762  
434.500000	1.010809  
435.000000	1.040160  
435.500000	1.064565  
436.000000	1.079629  
436.500000	1.082231  
437.000000	1.051537  
437.500000	1.027006  
438.000000	1.012549  
438.500000	0.988838  
439.000000	1.003100  
439.500000	0.977374  
440.000000	0.977908  
440.500000	0.995583  
441.000000	1.017472  
441.500000	1.026003  
442.000000	1.026459  
442.500000	1.043144  
443.000000	1.050269  
443.500000	1.080900  
444.000000	1.061814  
444.500000	1.054251  

