PE FL                   SPECTRUM    ASCII       PEDS        1.60        
  -1
PM317D~1
23/10/10
11:00:08.00
23/10/10
11:00:08.00


444.500000
1









LS55
25.00
5.00
5.00
SCAN
1
20
100
100
0
500
0
2
0
1
7
ON
500 450 
1 0 0
#HDR
-1
-1
#GR
NM

0.00002384185791015625
0.0
300.000000
0.500000
290
8
63.044810
-0.445968
#DATA
300.000000	-0.000000 
300.500000	1.800911  
301.000000	3.583656  
301.500000	5.116058  
302.000000	6.469178  
302.500000	7.541141  
303.000000	8.615844  
303.500000	9.575042  
304.000000	10.450878 
304.500000	11.105136 
305.000000	11.768626 
305.500000	12.471363 
306.000000	12.897914 
306.500000	13.183507 
307.000000	13.260567 
307.500000	13.451996 
308.000000	13.879104 
308.500000	14.620114 
309.000000	15.172169 
309.500000	15.763991 
310.000000	16.724617 
310.500000	18.029512 
311.000000	19.458933 
311.500000	20.917439 
312.000000	22.739311 
312.500000	24.586747 
313.000000	26.566977 
313.500000	28.604535 
314.000000	30.548360 
314.500000	32.446918 
315.000000	34.344601 
315.500000	36.174135 
316.000000	37.765486 
316.500000	39.685837 
317.000000	41.343668 
317.500000	43.237352 
318.000000	45.536129 
318.500000	48.049843 
319.000000	50.764728 
319.500000	53.519286 
320.000000	56.172104 
320.500000	58.315401 
321.000000	60.314474 
321.500000	61.484023 
322.000000	62.096363 
322.500000	62.485566 
323.000000	62.614187 
323.500000	62.893726 
324.000000	63.044810 
324.500000	63.016679 
325.000000	62.916952 
325.500000	62.888288 
326.000000	62.173481 
326.500000	60.878950 
327.000000	59.276578 
327.500000	57.401352 
328.000000	55.652312 
328.500000	53.815237 
329.000000	51.976162 
329.500000	50.322013 
330.000000	49.182872 
330.500000	48.191025 
331.000000	47.019541 
331.500000	45.858537 
332.000000	44.514387 
332.500000	42.919331 
333.000000	40.730526 
333.500000	38.135278 
334.000000	35.266615 
334.500000	32.731111 
335.000000	30.351549 
335.500000	27.940114 
336.000000	25.737596 
336.500000	23.809071 
337.000000	22.019207 
337.500000	19.949106 
338.000000	17.919088 
338.500000	15.767889 
339.000000	13.853705 
339.500000	12.219100 
340.000000	10.881303 
340.500000	9.948169  
341.000000	9.461870  
341.500000	9.263180  
342.000000	8.976754  
342.500000	8.586371  
343.000000	8.001689  
343.500000	7.268919  
344.000000	6.409366  
344.500000	5.514684  
345.000000	4.615602  
345.500000	3.835812  
346.000000	3.314557  
346.500000	2.846603  
347.000000	2.537573  
347.500000	2.337398  
348.000000	2.328492  
348.500000	2.366829  
349.000000	2.374024  
349.500000	2.291999  
350.000000	2.236908  
350.500000	2.272148  
351.000000	2.224373  
351.500000	2.122540  
352.000000	1.971379  
352.500000	1.856945  
353.000000	1.685361  
353.500000	1.452709  
354.000000	1.108424  
354.500000	0.760229  
355.000000	0.434353  
355.500000	0.107346  
356.000000	-0.235701 
356.500000	-0.445968 
357.000000	-0.440210 
357.500000	-0.397554 
358.000000	-0.335792 
358.500000	-0.311039 
359.000000	-0.168733 
359.500000	0.058392  
360.000000	0.392675  
360.500000	0.580528  
361.000000	0.819415  
361.500000	1.071504  
362.000000	1.273759  
362.500000	1.327850  
363.000000	1.209249  
363.500000	1.021120  
364.000000	0.840984  
364.500000	0.788585  
365.000000	0.605547  
365.500000	0.402394  
366.000000	0.282460  
366.500000	0.303250  
367.000000	0.370678  
367.500000	0.418377  
368.000000	0.490653  
368.500000	0.636993  
369.000000	0.899668  
369.500000	1.071913  
370.000000	1.094123  
370.500000	0.995326  
371.000000	0.921920  
371.500000	0.795728  
372.000000	0.554665  
372.500000	0.371697  
373.000000	0.315505  
373.500000	0.371153  
374.000000	0.446095  
374.500000	0.504446  
375.000000	0.590236  
375.500000	0.737237  
376.000000	0.900487  
376.500000	0.920537  
377.000000	0.931581  
377.500000	0.986173  
378.000000	1.050074  
378.500000	1.094516  
379.000000	1.103222  
379.500000	1.058577  
380.000000	1.073543  
380.500000	1.083288  
381.000000	1.031309  
381.500000	0.999585  
382.000000	0.967222  
382.500000	0.937947  
383.000000	0.950713  
383.500000	0.952481  
384.000000	0.905417  
384.500000	0.879465  
385.000000	0.765072  
385.500000	0.627962  
386.000000	0.461051  
386.500000	0.271653  
387.000000	0.088224  
387.500000	0.036599  
388.000000	0.108540  
388.500000	0.302834  
389.000000	0.607045  
389.500000	0.904211  
390.000000	1.131580  
390.500000	1.256108  
391.000000	1.272368  
391.500000	1.158893  
392.000000	1.026228  
392.500000	0.898064  
393.000000	0.832684  
393.500000	0.795792  
394.000000	0.851447  
394.500000	0.929678  
395.000000	1.030751  
395.500000	1.141634  
396.000000	1.175803  
396.500000	1.200044  
397.000000	1.242984  
397.500000	1.281849  
398.000000	1.280247  
398.500000	1.286014  
399.000000	1.225797  
399.500000	1.147649  
400.000000	1.070464  
400.500000	0.943646  
401.000000	0.826476  
401.500000	0.732810  
402.000000	0.697732  
402.500000	0.674751  
403.000000	0.679358  
403.500000	0.655412  
404.000000	0.636453  
404.500000	0.607087  
405.000000	0.587715  
405.500000	0.633588  
406.000000	0.677798  
406.500000	0.750975  
407.000000	0.801366  
407.500000	0.826763  
408.000000	0.831375  
408.500000	0.835312  
409.000000	0.797198  
409.500000	0.754339  
410.000000	0.785213  
410.500000	0.845963  
411.000000	0.972162  
411.500000	1.088272  
412.000000	1.169058  
412.500000	1.227938  
413.000000	1.248648  
413.500000	1.202169  
414.000000	1.103818  
414.500000	0.998301  
415.000000	0.922575  
415.500000	0.885430  
416.000000	0.878765  
416.500000	0.877202  
417.000000	0.899106  
417.500000	0.945202  
418.000000	0.965139  
418.500000	0.970886  
419.000000	0.929270  
419.500000	0.859822  
420.000000	0.778936  
420.500000	0.695680  
421.000000	0.624777  
421.500000	0.578543  
422.000000	0.575920  
422.500000	0.608906  
423.000000	0.696341  
423.500000	0.793435  
424.000000	0.883183  
424.500000	0.924563  
425.000000	0.931395  
425.500000	0.921188  
426.000000	0.889099  
426.500000	0.839402  
427.000000	0.806924  
427.500000	0.801600  
428.000000	0.817806  
428.500000	0.864158  
429.000000	0.899491  
429.500000	0.922288  
430.000000	0.931503  
430.500000	0.921713  
431.000000	0.870453  
431.500000	0.829563  
432.000000	0.785045  
432.500000	0.704588  
433.000000	0.643759  
433.500000	0.597698  
434.000000	0.571493  
434.500000	0.568996  
435.000000	0.581653  
435.500000	0.589777  
436.000000	0.623188  
436.500000	0.687726  
437.000000	0.739225  
437.500000	0.799228  
438.000000	0.853721  
438.500000	0.894402  
439.000000	0.910590  
439.500000	0.911642  
440.000000	0.870216  
440.500000	0.801696  
441.000000	0.746558  
441.500000	0.693942  
442.000000	0.665036  
442.500000	0.668214  
443.000000	0.690034  
443.500000	0.716356  
444.000000	0.745258  
444.500000	0.763330  

