PE FL                   SPECTRUM    ASCII       PEDS        1.60        
  -1
PM417D~1
23/10/10
11:00:42.00
23/10/10
11:00:42.00


444.500000
1









LS55
30.00
5.00
5.00
SCAN
1
20
100
100
0
500
0
2
0
1
7
ON
500 450 
1 0 0
#HDR
-1
-1
#GR
NM

0.00002384185791015625
0.0
300.000000
0.500000
290
8
77.424200
-0.134496
#DATA
300.000000	6.603999  
300.500000	8.834162  
301.000000	11.105354 
301.500000	12.712768 
302.000000	13.766605 
302.500000	14.367867 
303.000000	14.720595 
303.500000	15.208796 
304.000000	16.139191 
304.500000	17.273052 
305.000000	18.695427 
305.500000	20.522388 
306.000000	22.135735 
306.500000	23.510015 
307.000000	24.425814 
307.500000	25.183350 
308.000000	25.789620 
308.500000	26.490563 
309.000000	27.382016 
309.500000	28.817421 
310.000000	30.787244 
310.500000	33.353966 
311.000000	36.061969 
311.500000	39.009394 
312.000000	42.423090 
312.500000	45.389698 
313.000000	48.410724 
313.500000	51.318876 
314.000000	54.192394 
314.500000	56.769300 
315.000000	59.742165 
315.500000	62.435790 
316.000000	64.625376 
316.500000	66.863281 
317.000000	68.707363 
317.500000	70.417590 
318.000000	71.881740 
318.500000	73.115528 
319.000000	73.869796 
319.500000	75.099923 
320.000000	76.482550 
320.500000	77.219921 
321.000000	77.424200 
321.500000	77.093632 
322.000000	76.323621 
322.500000	75.442351 
323.000000	74.389378 
323.500000	73.198377 
324.000000	72.340653 
324.500000	72.581253 
325.000000	73.022782 
325.500000	73.275641 
326.000000	73.258181 
326.500000	72.637143 
327.000000	71.528317 
327.500000	69.616267 
328.000000	67.226140 
328.500000	64.173835 
329.000000	61.219849 
329.500000	58.436518 
330.000000	55.753151 
330.500000	53.043444 
331.000000	50.134809 
331.500000	47.410260 
332.000000	44.694212 
332.500000	42.268922 
333.000000	39.586688 
333.500000	36.901372 
334.000000	34.401163 
334.500000	31.746141 
335.000000	29.109672 
335.500000	26.355331 
336.000000	23.703190 
336.500000	21.213077 
337.000000	19.109814 
337.500000	17.187135 
338.000000	15.528868 
338.500000	14.399000 
339.000000	13.419115 
339.500000	12.727818 
340.000000	12.082663 
340.500000	11.433747 
341.000000	10.651718 
341.500000	9.841706  
342.000000	8.923728  
342.500000	7.983142  
343.000000	7.270751  
343.500000	6.772807  
344.000000	6.427707  
344.500000	6.149280  
345.000000	5.952474  
345.500000	5.750112  
346.000000	5.470883  
346.500000	4.990143  
347.000000	4.328371  
347.500000	3.569396  
348.000000	2.903341  
348.500000	2.338339  
349.000000	1.853056  
349.500000	1.457054  
350.000000	1.178008  
350.500000	1.018326  
351.000000	0.940992  
351.500000	0.886098  
352.000000	0.789646  
352.500000	0.689207  
353.000000	0.604525  
353.500000	0.624819  
354.000000	0.586563  
354.500000	0.542552  
355.000000	0.519832  
355.500000	0.509502  
356.000000	0.516702  
356.500000	0.478970  
357.000000	0.410999  
357.500000	0.295441  
358.000000	0.249544  
358.500000	0.248137  
359.000000	0.293193  
359.500000	0.389802  
360.000000	0.530523  
360.500000	0.706128  
361.000000	0.887399  
361.500000	1.088667  
362.000000	1.219479  
362.500000	1.209145  
363.000000	1.121279  
363.500000	0.973711  
364.000000	0.811718  
364.500000	0.616860  
365.000000	0.423738  
365.500000	0.321772  
366.000000	0.254046  
366.500000	0.259381  
367.000000	0.180894  
367.500000	0.070378  
368.000000	-0.055433 
368.500000	-0.125418 
369.000000	-0.134496 
369.500000	-0.132806 
370.000000	0.018952  
370.500000	0.172175  
371.000000	0.421468  
371.500000	0.635109  
372.000000	0.760738  
372.500000	0.814869  
373.000000	0.796349  
373.500000	0.742074  
374.000000	0.689728  
374.500000	0.668116  
375.000000	0.595459  
375.500000	0.530583  
376.000000	0.500296  
376.500000	0.440535  
377.000000	0.464116  
377.500000	0.457158  
378.000000	0.452989  
378.500000	0.560580  
379.000000	0.699704  
379.500000	0.792113  
380.000000	0.826062  
380.500000	0.778647  
381.000000	0.657729  
381.500000	0.596739  
382.000000	0.502290  
382.500000	0.396374  
383.000000	0.356552  
383.500000	0.434863  
384.000000	0.565276  
384.500000	0.712738  
385.000000	0.839035  
385.500000	0.908957  
386.000000	0.975768  
386.500000	0.971600  
387.000000	0.930803  
387.500000	0.821225  
388.000000	0.781728  
388.500000	0.754459  
389.000000	0.770767  
389.500000	0.868306  
390.000000	0.981747  
390.500000	1.105593  
391.000000	1.215647  
391.500000	1.280078  
392.000000	1.254586  
392.500000	1.270172  
393.000000	1.238918  
393.500000	1.138341  
394.000000	1.079869  
394.500000	1.014396  
395.000000	0.965208  
395.500000	0.921554  
396.000000	0.861559  
396.500000	0.773426  
397.000000	0.721962  
397.500000	0.682203  
398.000000	0.632966  
398.500000	0.599065  
399.000000	0.556814  
399.500000	0.529747  
400.000000	0.494350  
400.500000	0.484024  
401.000000	0.480625  
401.500000	0.464405  
402.000000	0.454586  
402.500000	0.468544  
403.000000	0.509686  
403.500000	0.556211  
404.000000	0.618665  
404.500000	0.637979  
405.000000	0.651206  
405.500000	0.711278  
406.000000	0.721945  
406.500000	0.685760  
407.000000	0.634069  
407.500000	0.587862  
408.000000	0.566714  
408.500000	0.597010  
409.000000	0.661230  
409.500000	0.714147  
410.000000	0.829784  
410.500000	0.932211  
411.000000	1.013332  
411.500000	1.070163  
412.000000	1.035145  
412.500000	0.975252  
413.000000	0.916118  
413.500000	0.885526  
414.000000	0.821294  
414.500000	0.776315  
415.000000	0.736951  
415.500000	0.705344  
416.000000	0.726145  
416.500000	0.715936  
417.000000	0.735064  
417.500000	0.775510  
418.000000	0.831704  
418.500000	0.885867  
419.000000	0.895486  
419.500000	0.892305  
420.000000	0.828773  
420.500000	0.775945  
421.000000	0.696471  
421.500000	0.642677  
422.000000	0.624139  
422.500000	0.608457  
423.000000	0.647906  
423.500000	0.676049  
424.000000	0.725578  
424.500000	0.749980  
425.000000	0.750235  
425.500000	0.739695  
426.000000	0.736005  
426.500000	0.734636  
427.000000	0.693404  
427.500000	0.685273  
428.000000	0.669217  
428.500000	0.655501  
429.000000	0.662510  
429.500000	0.665283  
430.000000	0.696939  
430.500000	0.750444  
431.000000	0.814974  
431.500000	0.854950  
432.000000	0.907185  
432.500000	0.928697  
433.000000	0.903976  
433.500000	0.884187  
434.000000	0.831847  
434.500000	0.781304  
435.000000	0.736654  
435.500000	0.706828  
436.000000	0.684850  
436.500000	0.680348  
437.000000	0.672083  
437.500000	0.672187  
438.000000	0.688267  
438.500000	0.692959  
439.000000	0.696589  
439.500000	0.695617  
440.000000	0.708649  
440.500000	0.737553  
441.000000	0.749596  
441.500000	0.745555  
442.000000	0.751879  
442.500000	0.777264  
443.000000	0.804592  
443.500000	0.818410  
444.000000	0.829507  
444.500000	0.842979  

