PE FL                   SPECTRUM    ASCII       PEDS        1.60        
  -1
PM217D~1
23/10/10
10:59:34.00
23/10/10
10:59:34.00


444.500000
1









LS55
20.00
5.00
5.00
SCAN
1
20
100
100
0
500
0
2
0
1
7
ON
500 450 
1 0 0
#HDR
-1
-1
#GR
NM

0.00002384185791015625
0.0
300.000000
0.500000
290
8
49.150873
-0.246367
#DATA
300.000000	1.038000  
300.500000	0.600409  
301.000000	0.037229  
301.500000	-0.246367 
302.000000	0.015747  
302.500000	0.944506  
303.000000	1.751739  
303.500000	2.307660  
304.000000	2.827127  
304.500000	3.461190  
305.000000	4.217988  
305.500000	4.716018  
306.000000	4.999444  
306.500000	5.256139  
307.000000	5.611214  
307.500000	6.101380  
308.000000	6.483891  
308.500000	6.658173  
309.000000	7.018932  
309.500000	7.632957  
310.000000	8.284832  
310.500000	9.180598  
311.000000	10.176893 
311.500000	10.992490 
312.000000	12.080663 
312.500000	13.275346 
313.000000	14.354438 
313.500000	15.548655 
314.000000	16.636187 
314.500000	17.595779 
315.000000	18.638854 
315.500000	19.835741 
316.000000	20.802951 
316.500000	21.913018 
317.000000	23.206494 
317.500000	24.761488 
318.000000	26.836704 
318.500000	29.026016 
319.000000	30.824009 
319.500000	32.177494 
320.000000	33.373198 
320.500000	34.512478 
321.000000	35.482152 
321.500000	36.403248 
322.000000	37.380299 
322.500000	38.655414 
323.000000	40.185065 
323.500000	41.872813 
324.000000	43.263483 
324.500000	44.710661 
325.000000	46.151403 
325.500000	47.417941 
326.000000	48.379259 
326.500000	49.029123 
327.000000	49.150873 
327.500000	48.885738 
328.000000	48.440623 
328.500000	47.492922 
329.000000	46.488712 
329.500000	45.726789 
330.000000	44.867422 
330.500000	43.852506 
331.000000	42.992880 
331.500000	42.024279 
332.000000	40.641665 
332.500000	39.066610 
333.000000	37.328258 
333.500000	35.443279 
334.000000	33.866100 
334.500000	32.297060 
335.000000	30.403119 
335.500000	28.432619 
336.000000	26.420871 
336.500000	24.038127 
337.000000	21.509562 
337.500000	19.207242 
338.000000	16.819261 
338.500000	14.902202 
339.000000	13.381537 
339.500000	12.137309 
340.000000	11.262579 
340.500000	10.800782 
341.000000	10.274634 
341.500000	9.712060  
342.000000	9.302959  
342.500000	8.777241  
343.000000	8.191261  
343.500000	7.566153  
344.000000	6.926227  
344.500000	6.380546  
345.000000	5.942380  
345.500000	5.485130  
346.000000	5.147375  
346.500000	5.001913  
347.000000	4.827640  
347.500000	4.692564  
348.000000	4.621053  
348.500000	4.477216  
349.000000	4.261949  
349.500000	3.943253  
350.000000	3.441556  
350.500000	2.919999  
351.000000	2.422654  
351.500000	1.874777  
352.000000	1.340873  
352.500000	1.036429  
353.000000	0.987886  
353.500000	1.079451  
354.000000	1.200361  
354.500000	1.206876  
355.000000	1.185317  
355.500000	1.193404  
356.000000	1.173184  
356.500000	1.073347  
357.000000	0.974683  
357.500000	0.948745  
358.000000	1.022375  
358.500000	1.116610  
359.000000	1.132861  
359.500000	1.117568  
360.000000	1.060068  
360.500000	1.004634  
361.000000	0.927225  
361.500000	0.834199  
362.000000	0.780223  
362.500000	0.833075  
363.000000	0.961197  
363.500000	1.072397  
364.000000	1.192409  
364.500000	1.238430  
365.000000	1.314153  
365.500000	1.444956  
366.000000	1.603570  
366.500000	1.734307  
367.000000	1.833882  
367.500000	1.867271  
368.000000	1.810413  
368.500000	1.686665  
369.000000	1.422101  
369.500000	1.156402  
370.000000	0.891703  
370.500000	0.689087  
371.000000	0.526559  
371.500000	0.405209  
372.000000	0.305646  
372.500000	0.213241  
373.000000	0.158850  
373.500000	0.081909  
374.000000	0.055718  
374.500000	0.053581  
375.000000	0.111730  
375.500000	0.219054  
376.000000	0.386242  
376.500000	0.554301  
377.000000	0.697376  
377.500000	0.781724  
378.000000	0.816406  
378.500000	0.793582  
379.000000	0.763935  
379.500000	0.799866  
380.000000	0.785222  
380.500000	0.801110  
381.000000	0.854523  
381.500000	0.947956  
382.000000	1.046006  
382.500000	1.143566  
383.000000	1.186278  
383.500000	1.212092  
384.000000	1.304252  
384.500000	1.310229  
385.000000	1.243780  
385.500000	1.131809  
386.000000	1.050157  
386.500000	0.983428  
387.000000	0.912918  
387.500000	0.838698  
388.000000	0.789964  
388.500000	0.790875  
389.000000	0.814655  
389.500000	0.794763  
390.000000	0.789001  
390.500000	0.802081  
391.000000	0.830153  
391.500000	0.818061  
392.000000	0.799347  
392.500000	0.790561  
393.000000	0.735264  
393.500000	0.674411  
394.000000	0.575835  
394.500000	0.527394  
395.000000	0.481887  
395.500000	0.501581  
396.000000	0.544387  
396.500000	0.650021  
397.000000	0.820783  
397.500000	0.955664  
398.000000	1.039030  
398.500000	1.055418  
399.000000	1.079768  
399.500000	1.034836  
400.000000	0.984530  
400.500000	0.913735  
401.000000	0.866303  
401.500000	0.866598  
402.000000	0.842610  
402.500000	0.782751  
403.000000	0.755981  
403.500000	0.808834  
404.000000	0.882379  
404.500000	0.981712  
405.000000	1.098126  
405.500000	1.218481  
406.000000	1.357582  
406.500000	1.426812  
407.000000	1.421045  
407.500000	1.358728  
408.000000	1.264036  
408.500000	1.149248  
409.000000	0.995697  
409.500000	0.898081  
410.000000	0.844692  
410.500000	0.845215  
411.000000	0.881559  
411.500000	0.944307  
412.000000	1.026877  
412.500000	1.109996  
413.000000	1.170603  
413.500000	1.188229  
414.000000	1.221004  
414.500000	1.230030  
415.000000	1.202888  
415.500000	1.150290  
416.000000	1.101668  
416.500000	1.092731  
417.000000	1.110395  
417.500000	1.100193  
418.000000	1.095082  
418.500000	1.119743  
419.000000	1.128976  
419.500000	1.101735  
420.000000	1.078395  
420.500000	1.044828  
421.000000	1.051653  
421.500000	1.069726  
422.000000	1.055762  
422.500000	1.070795  
423.000000	1.099274  
423.500000	1.111933  
424.000000	1.091789  
424.500000	1.062552  
425.000000	1.020530  
425.500000	0.996726  
426.000000	0.973322  
426.500000	0.947628  
427.000000	0.950460  
427.500000	0.969364  
428.000000	0.989516  
428.500000	1.001398  
429.000000	1.011881  
429.500000	0.991327  
430.000000	0.971236  
430.500000	0.956144  
431.000000	0.954823  
431.500000	0.975175  
432.000000	1.004064  
432.500000	1.020035  
433.000000	1.034184  
433.500000	1.064033  
434.000000	1.056680  
434.500000	1.007908  
435.000000	0.943418  
435.500000	0.878995  
436.000000	0.830167  
436.500000	0.816127  
437.000000	0.808375  
437.500000	0.818445  
438.000000	0.866153  
438.500000	0.898112  
439.000000	0.908353  
439.500000	0.898470  
440.000000	0.866772  
440.500000	0.825606  
441.000000	0.812176  
441.500000	0.809602  
442.000000	0.815129  
442.500000	0.840532  
443.000000	0.868952  
443.500000	0.908608  
444.000000	0.942201  
444.500000	0.950584  

