PE FL                   SPECTRUM    ASCII       PEDS        1.60        
  -1
PM017D~1
23/10/10
10:58:25.00
23/10/10
10:58:25.00


444.500000
1









LS55
10.00
5.00
5.00
SCAN
1
20
100
100
0
500
0
2
0
1
7
ON
500 450 
1 0 0
#HDR
-1
-1
#GR
NM

0.00002384185791015625
0.0
300.000000
0.500000
290
8
18.410240
-2.489858
#DATA
300.000000	7.913000  
300.500000	4.475478  
301.000000	1.699266  
301.500000	-0.699698 
302.000000	-2.039828 
302.500000	-2.489858 
303.000000	-2.292472 
303.500000	-1.866003 
304.000000	-1.135724 
304.500000	-0.560044 
305.000000	-0.200370 
305.500000	0.311074  
306.000000	0.425990  
306.500000	0.647077  
307.000000	0.894674  
307.500000	1.084891  
308.000000	0.949613  
308.500000	0.734456  
309.000000	0.385907  
309.500000	-0.073354 
310.000000	-0.277906 
310.500000	-0.529903 
311.000000	-0.555179 
311.500000	-0.303769 
312.000000	0.256787  
312.500000	1.145153  
313.000000	2.358286  
313.500000	3.577358  
314.000000	4.588910  
314.500000	5.325568  
315.000000	6.094175  
315.500000	6.547025  
316.000000	6.748286  
316.500000	6.699174  
317.000000	6.599614  
317.500000	6.744616  
318.000000	6.934950  
318.500000	7.288865  
319.000000	7.600864  
319.500000	8.245161  
320.000000	9.056985  
320.500000	10.038702 
321.000000	11.048262 
321.500000	11.970634 
322.000000	12.860434 
322.500000	13.513171 
323.000000	14.110514 
323.500000	14.338156 
324.000000	14.397628 
324.500000	14.326847 
325.000000	14.370702 
325.500000	14.630994 
326.000000	15.023031 
326.500000	15.505231 
327.000000	15.963992 
327.500000	16.575147 
328.000000	17.113510 
328.500000	17.543307 
329.000000	17.832852 
329.500000	18.146167 
330.000000	18.329190 
330.500000	18.410240 
331.000000	18.396224 
331.500000	18.188298 
332.000000	17.877219 
332.500000	17.607814 
333.000000	17.535133 
333.500000	17.481887 
334.000000	17.506261 
334.500000	17.315280 
335.000000	16.989050 
335.500000	16.501326 
336.000000	15.847158 
336.500000	14.842522 
337.000000	13.774100 
337.500000	12.888030 
338.000000	12.208205 
338.500000	11.826956 
339.000000	11.467114 
339.500000	11.228741 
340.000000	11.044585 
340.500000	10.896016 
341.000000	10.597388 
341.500000	10.130654 
342.000000	9.715563  
342.500000	9.341944  
343.000000	8.972829  
343.500000	8.573622  
344.000000	8.168806  
344.500000	7.642422  
345.000000	7.005857  
345.500000	6.469108  
346.000000	5.888911  
346.500000	5.433650  
347.000000	5.064799  
347.500000	4.752899  
348.000000	4.458288  
348.500000	4.289506  
349.000000	4.090730  
349.500000	3.780742  
350.000000	3.532152  
350.500000	3.211111  
351.000000	2.953647  
351.500000	2.730843  
352.000000	2.582728  
352.500000	2.428612  
353.000000	2.389405  
353.500000	2.318257  
354.000000	2.155029  
354.500000	2.098104  
355.000000	2.035107  
355.500000	1.961829  
356.000000	1.897321  
356.500000	1.864780  
357.000000	1.923017  
357.500000	2.126359  
358.000000	2.323017  
358.500000	2.450271  
359.000000	2.589337  
359.500000	2.647941  
360.000000	2.614385  
360.500000	2.479414  
361.000000	2.142555  
361.500000	1.890841  
362.000000	1.736256  
362.500000	1.712286  
363.000000	1.834289  
363.500000	2.036579  
364.000000	2.250331  
364.500000	2.518518  
365.000000	2.833283  
365.500000	2.945883  
366.000000	2.919945  
366.500000	2.791976  
367.000000	2.621063  
367.500000	2.537293  
368.000000	2.427967  
368.500000	2.231939  
369.000000	2.066552  
369.500000	2.066858  
370.000000	2.110183  
370.500000	2.117919  
371.000000	2.086478  
371.500000	2.058351  
372.000000	2.094752  
372.500000	2.121384  
373.000000	2.026087  
373.500000	1.862232  
374.000000	1.734590  
374.500000	1.660701  
375.000000	1.647035  
375.500000	1.653970  
376.000000	1.743149  
376.500000	1.903518  
377.000000	2.116195  
377.500000	2.229012  
378.000000	2.300153  
378.500000	2.325683  
379.000000	2.277707  
379.500000	2.217158  
380.000000	2.047124  
380.500000	1.877165  
381.000000	1.742959  
381.500000	1.698170  
382.000000	1.620037  
382.500000	1.655695  
383.000000	1.756983  
383.500000	1.910502  
384.000000	2.062766  
384.500000	2.112933  
385.000000	2.059441  
385.500000	1.934558  
386.000000	1.792388  
386.500000	1.604345  
387.000000	1.476848  
387.500000	1.382369  
388.000000	1.378227  
388.500000	1.443698  
389.000000	1.544950  
389.500000	1.652181  
390.000000	1.753243  
390.500000	1.806749  
391.000000	1.837716  
391.500000	1.922777  
392.000000	1.949655  
392.500000	1.911496  
393.000000	1.843354  
393.500000	1.722530  
394.000000	1.582097  
394.500000	1.460553  
395.000000	1.300097  
395.500000	1.220050  
396.000000	1.279279  
396.500000	1.377818  
397.000000	1.478119  
397.500000	1.601192  
398.000000	1.689705  
398.500000	1.704593  
399.000000	1.684430  
399.500000	1.657299  
400.000000	1.646802  
400.500000	1.713522  
401.000000	1.802655  
401.500000	1.889777  
402.000000	2.014719  
402.500000	2.145062  
403.000000	2.180800  
403.500000	2.107298  
404.000000	2.020131  
404.500000	1.891901  
405.000000	1.794710  
405.500000	1.717537  
406.000000	1.684005  
406.500000	1.680450  
407.000000	1.776337  
407.500000	1.874789  
408.000000	1.912877  
408.500000	1.968673  
409.000000	1.953343  
409.500000	1.858626  
410.000000	1.761114  
410.500000	1.689847  
411.000000	1.611064  
411.500000	1.613220  
412.000000	1.639379  
412.500000	1.709653  
413.000000	1.864235  
413.500000	2.040122  
414.000000	2.138150  
414.500000	2.200313  
415.000000	2.248891  
415.500000	2.237249  
416.000000	2.211195  
416.500000	2.100741  
417.000000	1.959768  
417.500000	1.854624  
418.000000	1.790243  
418.500000	1.703723  
419.000000	1.627416  
419.500000	1.597061  
420.000000	1.597814  
420.500000	1.639400  
421.000000	1.661580  
421.500000	1.651746  
422.000000	1.640974  
422.500000	1.635020  
423.000000	1.622155  
423.500000	1.598721  
424.000000	1.605142  
424.500000	1.616667  
425.000000	1.653861  
425.500000	1.711175  
426.000000	1.751479  
426.500000	1.786416  
427.000000	1.819540  
427.500000	1.843216  
428.000000	1.827291  
428.500000	1.805390  
429.000000	1.747232  
429.500000	1.675530  
430.000000	1.619415  
430.500000	1.571935  
431.000000	1.529575  
431.500000	1.503544  
432.000000	1.506855  
432.500000	1.519217  
433.000000	1.548808  
433.500000	1.568680  
434.000000	1.571144  
434.500000	1.577951  
435.000000	1.575649  
435.500000	1.558986  
436.000000	1.543632  
436.500000	1.538326  
437.000000	1.535699  
437.500000	1.546145  
438.000000	1.570599  
438.500000	1.560658  
439.000000	1.548149  
439.500000	1.536767  
440.000000	1.522193  
440.500000	1.517082  
441.000000	1.516437  
441.500000	1.519895  
442.000000	1.534546  
442.500000	1.586375  
443.000000	1.617566  
443.500000	1.648748  
444.000000	1.654346  
444.500000	1.633621  

