PE FL                   SPECTRUM    ASCII       PEDS        1.60        
  -1
PM517D~1
23/10/10
11:01:16.00
23/10/10
11:01:16.00


444.500000
1









LS55
35.00
5.00
5.00
SCAN
1
20
100
100
0
500
0
2
0
1
7
ON
500 450 
1 0 0
#HDR
-1
-1
#GR
NM

0.00002384185791015625
0.0
300.000000
0.500000
290
8
87.491240
-0.125618
#DATA
300.000000	18.652000 
300.500000	20.288186 
301.000000	21.936969 
301.500000	23.223888 
302.000000	24.381072 
302.500000	25.299997 
303.000000	26.128342 
303.500000	27.220754 
304.000000	29.074684 
304.500000	31.012747 
305.000000	33.113173 
305.500000	35.580929 
306.000000	38.260408 
306.500000	41.057996 
307.000000	43.863880 
307.500000	46.108504 
308.000000	48.294115 
308.500000	50.972241 
309.000000	53.518894 
309.500000	56.005794 
310.000000	58.399346 
310.500000	61.088056 
311.000000	64.006791 
311.500000	67.190861 
312.000000	69.334912 
312.500000	71.091808 
313.000000	73.042528 
313.500000	74.510764 
314.000000	75.719708 
314.500000	76.630786 
315.000000	77.540922 
315.500000	78.623313 
316.000000	80.137633 
316.500000	81.098152 
317.000000	82.194916 
317.500000	83.274950 
318.000000	84.397732 
318.500000	85.127986 
319.000000	85.776788 
319.500000	86.420974 
320.000000	86.715412 
320.500000	87.097179 
321.000000	87.018970 
321.500000	87.204230 
322.000000	87.314267 
322.500000	87.491240 
323.000000	86.994794 
323.500000	86.555413 
324.000000	86.018143 
324.500000	84.453043 
325.000000	82.153572 
325.500000	79.180551 
326.000000	76.017641 
326.500000	72.712080 
327.000000	69.442477 
327.500000	65.840958 
328.000000	62.480206 
328.500000	59.826661 
329.000000	57.007409 
329.500000	53.858763 
330.000000	50.793067 
330.500000	47.857187 
331.000000	45.489614 
331.500000	43.231535 
332.000000	41.091704 
332.500000	38.865814 
333.000000	36.875171 
333.500000	34.897496 
334.000000	32.391055 
334.500000	29.524764 
335.000000	26.458835 
335.500000	23.732840 
336.000000	21.110745 
336.500000	18.944181 
337.000000	16.900952 
337.500000	15.289496 
338.000000	14.264417 
338.500000	13.384086 
339.000000	12.480037 
339.500000	11.484104 
340.000000	10.771186 
340.500000	10.108805 
341.000000	9.559600  
341.500000	9.054125  
342.000000	8.474121  
342.500000	7.976415  
343.000000	7.567798  
343.500000	7.127921  
344.000000	6.447819  
344.500000	5.842784  
345.000000	5.319112  
345.500000	4.744499  
346.000000	4.227038  
346.500000	3.580874  
347.000000	3.045046  
347.500000	2.760961  
348.000000	2.587009  
348.500000	2.363561  
349.000000	2.134636  
349.500000	2.072976  
350.000000	1.959395  
350.500000	1.895085  
351.000000	1.692549  
351.500000	1.411002  
352.000000	1.213582  
352.500000	0.970885  
353.000000	0.720579  
353.500000	0.494302  
354.000000	0.476243  
354.500000	0.522390  
355.000000	0.558477  
355.500000	0.652063  
356.000000	0.686988  
356.500000	0.673915  
357.000000	0.546607  
357.500000	0.312379  
358.000000	0.090964  
358.500000	-0.016539 
359.000000	-0.051837 
359.500000	-0.050978 
360.000000	0.151620  
360.500000	0.415603  
361.000000	0.676083  
361.500000	0.888782  
362.000000	0.909634  
362.500000	0.912563  
363.000000	0.922350  
363.500000	0.915188  
364.000000	0.874818  
364.500000	0.905604  
365.000000	0.893153  
365.500000	0.922965  
366.000000	1.014045  
366.500000	1.048130  
367.000000	1.109624  
367.500000	1.205122  
368.000000	1.292810  
368.500000	1.433146  
369.000000	1.590412  
369.500000	1.568878  
370.000000	1.493354  
370.500000	1.377834  
371.000000	1.109506  
371.500000	0.801134  
372.000000	0.515513  
372.500000	0.241628  
373.000000	0.051147  
373.500000	-0.021219 
374.000000	-0.105904 
374.500000	-0.125618 
375.000000	-0.078254 
375.500000	-0.066861 
376.000000	-0.057616 
376.500000	-0.015598 
377.000000	0.038129  
377.500000	0.079766  
378.000000	0.114870  
378.500000	0.097686  
379.000000	0.066824  
379.500000	0.071769  
380.000000	0.084494  
380.500000	0.108233  
381.000000	0.188279  
381.500000	0.328543  
382.000000	0.561986  
382.500000	0.782717  
383.000000	0.976960  
383.500000	1.103568  
384.000000	1.145208  
384.500000	1.154779  
385.000000	1.105125  
385.500000	0.975074  
386.000000	0.804244  
386.500000	0.720923  
387.000000	0.693764  
387.500000	0.722159  
388.000000	0.753021  
388.500000	0.744449  
389.000000	0.777168  
389.500000	0.754643  
390.000000	0.673362  
390.500000	0.510814  
391.000000	0.395076  
391.500000	0.309190  
392.000000	0.285638  
392.500000	0.304340  
393.000000	0.346721  
393.500000	0.468787  
394.000000	0.579283  
394.500000	0.617410  
395.000000	0.588192  
395.500000	0.543134  
396.000000	0.523765  
396.500000	0.540797  
397.000000	0.588274  
397.500000	0.627349  
398.000000	0.709412  
398.500000	0.810393  
399.000000	0.884299  
399.500000	0.887372  
400.000000	0.837710  
400.500000	0.757576  
401.000000	0.654120  
401.500000	0.535987  
402.000000	0.396380  
402.500000	0.292371  
403.000000	0.265664  
403.500000	0.285838  
404.000000	0.343575  
404.500000	0.407300  
405.000000	0.494766  
405.500000	0.585354  
406.000000	0.642232  
406.500000	0.668400  
407.000000	0.716361  
407.500000	0.715754  
408.000000	0.690503  
408.500000	0.658685  
409.000000	0.608345  
409.500000	0.557092  
410.000000	0.499369  
410.500000	0.409099  
411.000000	0.300833  
411.500000	0.273948  
412.000000	0.298241  
412.500000	0.332928  
413.000000	0.385156  
413.500000	0.432490  
414.000000	0.492986  
414.500000	0.521267  
415.000000	0.521415  
415.500000	0.486433  
416.000000	0.453949  
416.500000	0.449236  
417.000000	0.451206  
417.500000	0.453372  
418.000000	0.450343  
418.500000	0.485124  
419.000000	0.509080  
419.500000	0.548709  
420.000000	0.562227  
420.500000	0.546785  
421.000000	0.549176  
421.500000	0.561540  
422.000000	0.576194  
422.500000	0.607321  
423.000000	0.656518  
423.500000	0.707308  
424.000000	0.756963  
424.500000	0.783400  
425.000000	0.789389  
425.500000	0.764518  
426.000000	0.709050  
426.500000	0.649677  
427.000000	0.596054  
427.500000	0.566075  
428.000000	0.559997  
428.500000	0.578540  
429.000000	0.594318  
429.500000	0.612575  
430.000000	0.601301  
430.500000	0.561831  
431.000000	0.526444  
431.500000	0.486775  
432.000000	0.460059  
432.500000	0.457772  
433.000000	0.460522  
433.500000	0.463078  
434.000000	0.473815  
434.500000	0.469508  
435.000000	0.469266  
435.500000	0.476332  
436.000000	0.482755  
436.500000	0.494554  
437.000000	0.538736  
437.500000	0.580170  
438.000000	0.610295  
438.500000	0.632441  
439.000000	0.629716  
439.500000	0.636234  
440.000000	0.607963  
440.500000	0.576329  
441.000000	0.534045  
441.500000	0.519023  
442.000000	0.511500  
442.500000	0.508052  
443.000000	0.501381  
443.500000	0.483760  
444.000000	0.503868  
444.500000	0.505538  

