PE FL                   SPECTRUM    ASCII       PEDS        1.60        
  -1
PM617D~1
23/10/10
11:01:51.00
23/10/10
11:01:51.00


444.500000
1









LS55
40.00
5.00
5.00
SCAN
1
20
100
100
0
500
0
2
0
1
7
ON
500 450 
1 0 0
#HDR
-1
-1
#GR
NM

0.00002384185791015625
0.0
300.000000
0.500000
290
8
94.178993
0.180269
#DATA
300.000000	29.356000 
300.500000	31.038134 
301.000000	32.839461 
301.500000	34.690052 
302.000000	36.865499 
302.500000	39.337511 
303.000000	42.577991 
303.500000	46.059543 
304.000000	49.776181 
304.500000	53.577396 
305.000000	56.873712 
305.500000	59.641978 
306.000000	62.011559 
306.500000	63.608321 
307.000000	64.769137 
307.500000	66.034555 
308.000000	67.065559 
308.500000	68.249205 
309.000000	69.768256 
309.500000	71.061155 
310.000000	72.533646 
310.500000	74.463196 
311.000000	76.387912 
311.500000	78.421664 
312.000000	81.020924 
312.500000	83.854198 
313.000000	86.859283 
313.500000	89.662711 
314.000000	91.728268 
314.500000	93.163983 
315.000000	94.081960 
315.500000	94.178993 
316.000000	93.654159 
316.500000	92.930556 
317.000000	92.208708 
317.500000	91.858078 
318.000000	92.015823 
318.500000	92.004171 
319.000000	91.876799 
319.500000	91.978595 
320.000000	91.756953 
320.500000	90.958488 
321.000000	89.423933 
321.500000	87.315744 
322.000000	84.796445 
322.500000	82.546107 
323.000000	80.309010 
323.500000	77.792911 
324.000000	75.780855 
324.500000	74.084004 
325.000000	72.990394 
325.500000	71.830603 
326.000000	70.200117 
326.500000	67.855988 
327.000000	65.374164 
327.500000	62.846770 
328.000000	59.529667 
328.500000	55.943828 
329.000000	52.339859 
329.500000	49.466262 
330.000000	46.875716 
330.500000	44.381916 
331.000000	41.881863 
331.500000	39.401331 
332.000000	37.338984 
332.500000	35.202621 
333.000000	33.067753 
333.500000	30.816449 
334.000000	29.035989 
334.500000	27.143175 
335.000000	25.234780 
335.500000	23.395574 
336.000000	21.474780 
336.500000	19.809253 
337.000000	18.022153 
337.500000	16.300965 
338.000000	14.709663 
338.500000	13.570448 
339.000000	12.430721 
339.500000	11.470484 
340.000000	10.629443 
340.500000	9.920437  
341.000000	9.388705  
341.500000	8.826148  
342.000000	8.202567  
342.500000	7.644010  
343.000000	7.191805  
343.500000	6.634972  
344.000000	6.050004  
344.500000	5.459296  
345.000000	4.885570  
345.500000	4.407101  
346.000000	3.978469  
346.500000	3.501039  
347.000000	3.235730  
347.500000	3.092209  
348.000000	3.000293  
348.500000	3.021894  
349.000000	3.069972  
349.500000	3.117208  
350.000000	3.170657  
350.500000	3.088167  
351.000000	2.856120  
351.500000	2.711128  
352.000000	2.538580  
352.500000	2.285309  
353.000000	2.035645  
353.500000	1.825701  
354.000000	1.733867  
354.500000	1.715113  
355.000000	1.729763  
355.500000	1.820547  
356.000000	2.049292  
356.500000	2.320797  
357.000000	2.519198  
357.500000	2.473590  
358.000000	2.277350  
358.500000	2.137127  
359.000000	1.911128  
359.500000	1.671954  
360.000000	1.488772  
360.500000	1.405792  
361.000000	1.404120  
361.500000	1.589421  
362.000000	1.662817  
362.500000	1.558045  
363.000000	1.536680  
363.500000	1.461600  
364.000000	1.435697  
364.500000	1.449063  
365.000000	1.472748  
365.500000	1.415560  
366.000000	1.412624  
366.500000	1.343538  
367.000000	1.117604  
367.500000	0.913443  
368.000000	0.716962  
368.500000	0.631675  
369.000000	0.663571  
369.500000	0.791945  
370.000000	0.930410  
370.500000	1.044096  
371.000000	1.076960  
371.500000	0.976232  
372.000000	0.816011  
372.500000	0.639985  
373.000000	0.500447  
373.500000	0.461539  
374.000000	0.532462  
374.500000	0.704820  
375.000000	0.884882  
375.500000	1.055843  
376.000000	1.166524  
376.500000	1.184313  
377.000000	1.144396  
377.500000	1.062957  
378.000000	1.009551  
378.500000	0.977758  
379.000000	0.992885  
379.500000	1.029459  
380.000000	1.097447  
380.500000	1.181579  
381.000000	1.211482  
381.500000	1.197619  
382.000000	1.112958  
382.500000	1.025038  
383.000000	0.921474  
383.500000	0.842894  
384.000000	0.790350  
384.500000	0.716947  
385.000000	0.652365  
385.500000	0.542325  
386.000000	0.444735  
386.500000	0.354689  
387.000000	0.321402  
387.500000	0.278869  
388.000000	0.247023  
388.500000	0.311826  
389.000000	0.392267  
389.500000	0.461130  
390.000000	0.448701  
390.500000	0.457771  
391.000000	0.456374  
391.500000	0.482284  
392.000000	0.487577  
392.500000	0.480843  
393.000000	0.519222  
393.500000	0.562087  
394.000000	0.577563  
394.500000	0.509206  
395.000000	0.393501  
395.500000	0.277299  
396.000000	0.212577  
396.500000	0.197425  
397.000000	0.193483  
397.500000	0.223643  
398.000000	0.256345  
398.500000	0.305002  
399.000000	0.351158  
399.500000	0.330936  
400.000000	0.286884  
400.500000	0.260214  
401.000000	0.267153  
401.500000	0.269845  
402.000000	0.301485  
402.500000	0.333163  
403.000000	0.371237  
403.500000	0.441244  
404.000000	0.463071  
404.500000	0.481337  
405.000000	0.470046  
405.500000	0.447644  
406.000000	0.389441  
406.500000	0.346957  
407.000000	0.314251  
407.500000	0.267803  
408.000000	0.231411  
408.500000	0.209749  
409.000000	0.247833  
409.500000	0.302500  
410.000000	0.348624  
410.500000	0.366619  
411.000000	0.407717  
411.500000	0.457219  
412.000000	0.465220  
412.500000	0.415073  
413.000000	0.375410  
413.500000	0.353814  
414.000000	0.356008  
414.500000	0.377449  
415.000000	0.403058  
415.500000	0.481536  
416.000000	0.571803  
416.500000	0.639654  
417.000000	0.652410  
417.500000	0.659928  
418.000000	0.640705  
418.500000	0.602759  
419.000000	0.573786  
419.500000	0.528144  
420.000000	0.502806  
420.500000	0.481855  
421.000000	0.452776  
421.500000	0.406686  
422.000000	0.367005  
422.500000	0.346705  
423.000000	0.323713  
423.500000	0.322379  
424.000000	0.309500  
424.500000	0.282145  
425.000000	0.249284  
425.500000	0.217702  
426.000000	0.193759  
426.500000	0.180269  
427.000000	0.199692  
427.500000	0.243181  
428.000000	0.297075  
428.500000	0.348485  
429.000000	0.374408  
429.500000	0.365799  
430.000000	0.361527  
430.500000	0.353902  
431.000000	0.354162  
431.500000	0.355006  
432.000000	0.385001  
432.500000	0.412170  
433.000000	0.437671  
433.500000	0.449206  
434.000000	0.419084  
434.500000	0.395408  
435.000000	0.366287  
435.500000	0.355484  
436.000000	0.334954  
436.500000	0.344726  
437.000000	0.337040  
437.500000	0.328016  
438.000000	0.329678  
438.500000	0.310456  
439.000000	0.302756  
439.500000	0.292624  
440.000000	0.300274  
440.500000	0.319210  
441.000000	0.370629  
441.500000	0.397077  
442.000000	0.409909  
442.500000	0.419331  
443.000000	0.424449  
443.500000	0.426939  
444.000000	0.405267  
444.500000	0.384851  

