PE FL                   SPECTRUM    ASCII       PEDS        1.60        
  -1
PP48A2~1
23/10/10
14:44:50.00
23/10/10
14:44:50.00


444.500000
1









LS55
35.00
5.00
5.00
SCAN
1
20
100
100
0
500
0
2
0
1
7
ON
500 450 
1 0 0
#HDR
-1
-1
#GR
NM

0.00002384185791015625
0.0
250.000000
0.500000
390
8
3.541005
-4.161000
#DATA
250.000000	-4.161000 
250.500000	-3.125193 
251.000000	-2.193796 
251.500000	-1.530441 
252.000000	-1.055550 
252.500000	-0.412711 
253.000000	-0.366741 
253.500000	-0.909502 
254.000000	-1.423049 
254.500000	-1.730075 
255.000000	-2.007302 
255.500000	-1.897746 
256.000000	-1.741179 
256.500000	-1.611960 
257.000000	-1.340644 
257.500000	-1.317045 
258.000000	-1.922076 
258.500000	-2.565177 
259.000000	-2.806353 
259.500000	-2.985947 
260.000000	-2.799475 
260.500000	-2.299016 
261.000000	-1.698085 
261.500000	-1.279977 
262.000000	-0.770832 
262.500000	-0.975231 
263.000000	-1.349943 
263.500000	-1.655522 
264.000000	-2.045450 
264.500000	-2.245977 
265.000000	-2.411342 
265.500000	-2.374487 
266.000000	-2.707312 
266.500000	-2.741055 
267.000000	-2.877296 
267.500000	-3.087305 
268.000000	-3.100198 
268.500000	-3.003459 
269.000000	-2.833945 
269.500000	-2.765360 
270.000000	-2.374259 
270.500000	-2.173152 
271.000000	-1.943678 
271.500000	-1.746309 
272.000000	-1.705964 
272.500000	-1.582373 
273.000000	-1.094058 
273.500000	-0.587398 
274.000000	-0.405242 
274.500000	-0.166978 
275.000000	0.022869  
275.500000	0.232903  
276.000000	0.376657  
276.500000	0.181402  
277.000000	-0.115146 
277.500000	-0.181287 
278.000000	-0.277045 
278.500000	-0.519040 
279.000000	-0.605425 
279.500000	-0.936848 
280.000000	-1.180994 
280.500000	-0.978143 
281.000000	-0.612093 
281.500000	-0.263158 
282.000000	0.238175  
282.500000	0.503071  
283.000000	0.725107  
283.500000	1.172759  
284.000000	1.084686  
284.500000	0.518999  
285.000000	-0.045346 
285.500000	-0.607820 
286.000000	-1.041336 
286.500000	-1.074706 
287.000000	-1.133585 
287.500000	-1.227010 
288.000000	-1.099827 
288.500000	-0.989678 
289.000000	-1.158164 
289.500000	-1.332472 
290.000000	-1.438941 
290.500000	-1.582019 
291.000000	-1.463832 
291.500000	-1.177412 
292.000000	-0.863256 
292.500000	-0.623336 
293.000000	-0.214340 
293.500000	0.094051  
294.000000	0.382505  
294.500000	0.861341  
295.000000	1.223133  
295.500000	1.465904  
296.000000	1.648283  
296.500000	1.815673  
297.000000	1.665087  
297.500000	1.388711  
298.000000	0.824445  
298.500000	0.004104  
299.000000	-0.612857 
299.500000	-1.335968 
300.000000	-1.721289 
300.500000	-1.817190 
301.000000	-1.586254 
301.500000	-1.283435 
302.000000	-0.832942 
302.500000	-0.154536 
303.000000	0.413221  
303.500000	1.108682  
304.000000	1.452608  
304.500000	1.919010  
305.000000	2.227839  
305.500000	2.542346  
306.000000	2.615593  
306.500000	2.252862  
307.000000	2.093239  
307.500000	1.668729  
308.000000	1.287545  
308.500000	0.618472  
309.000000	0.146622  
309.500000	-0.369804 
310.000000	-0.670185 
310.500000	-0.877903 
311.000000	-1.105557 
311.500000	-0.713784 
312.000000	-0.315021 
312.500000	0.157644  
313.000000	0.525359  
313.500000	0.999273  
314.000000	1.178224  
314.500000	1.254019  
315.000000	1.105368  
315.500000	0.624971  
316.000000	0.418955  
316.500000	0.319508  
317.000000	0.389362  
317.500000	0.581569  
318.000000	0.907736  
318.500000	1.401921  
319.000000	2.130298  
319.500000	2.789100  
320.000000	3.136693  
320.500000	3.370115  
321.000000	3.541005  
321.500000	3.411107  
322.000000	3.087194  
322.500000	2.599437  
323.000000	2.090717  
323.500000	1.730740  
324.000000	1.529934  
324.500000	1.441520  
325.000000	1.559095  
325.500000	1.848353  
326.000000	2.158920  
326.500000	2.429440  
327.000000	2.681914  
327.500000	2.875950  
328.000000	3.066735  
328.500000	3.244776  
329.000000	3.315104  
329.500000	3.468624  
330.000000	3.428195  
330.500000	3.395332  
331.000000	3.252207  
331.500000	3.191672  
332.000000	3.114927  
332.500000	3.152048  
333.000000	3.136379  
333.500000	3.014584  
334.000000	3.122029  
334.500000	3.035754  
335.000000	2.925144  
335.500000	2.745990  
336.000000	2.510238  
336.500000	2.163622  
337.000000	1.962007  
337.500000	1.776010  
338.000000	1.444391  
338.500000	1.267776  
339.000000	1.049439  
339.500000	0.795952  
340.000000	0.682574  
340.500000	0.671410  
341.000000	0.682911  
341.500000	0.888798  
342.000000	1.258677  
342.500000	1.642882  
343.000000	1.963937  
343.500000	2.148713  
344.000000	2.114236  
344.500000	2.059324  
345.000000	1.950939  
345.500000	1.817316  
346.000000	1.488137  
346.500000	1.110920  
347.000000	0.850626  
347.500000	0.656121  
348.000000	0.402006  
348.500000	0.052602  
349.000000	-0.199939 
349.500000	-0.311059 
350.000000	-0.113744 
350.500000	0.106102  
351.000000	0.234213  
351.500000	0.347932  
352.000000	0.450629  
352.500000	0.495769  
353.000000	0.475643  
353.500000	0.370990  
354.000000	0.213252  
354.500000	0.223903  
355.000000	0.295878  
355.500000	0.331588  
356.000000	0.324169  
356.500000	0.290284  
357.000000	0.186408  
357.500000	0.171824  
358.000000	0.201436  
358.500000	0.189782  
359.000000	0.274024  
359.500000	0.409084  
360.000000	0.567209  
360.500000	0.686581  
361.000000	0.726547  
361.500000	0.574959  
362.000000	0.494524  
362.500000	0.425864  
363.000000	0.321235  
363.500000	0.301424  
364.000000	0.363404  
364.500000	0.407797  
365.000000	0.533388  
365.500000	0.682249  
366.000000	0.690895  
366.500000	0.704140  
367.000000	0.743342  
367.500000	0.702945  
368.000000	0.668786  
368.500000	0.642743  
369.000000	0.537514  
369.500000	0.468208  
370.000000	0.389302  
370.500000	0.266478  
371.000000	0.152770  
371.500000	0.074784  
372.000000	0.075725  
372.500000	0.154724  
373.000000	0.241987  
373.500000	0.259366  
374.000000	0.269995  
374.500000	0.257206  
375.000000	0.232282  
375.500000	0.166505  
376.000000	0.126891  
376.500000	0.220814  
377.000000	0.406398  
377.500000	0.601397  
378.000000	0.834012  
378.500000	1.027565  
379.000000	1.088036  
379.500000	0.950434  
380.000000	0.744516  
380.500000	0.489882  
381.000000	0.287139  
381.500000	0.085173  
382.000000	-0.100832 
382.500000	-0.124457 
383.000000	0.017531  
383.500000	0.217191  
384.000000	0.271957  
384.500000	0.295750  
385.000000	0.367059  
385.500000	0.470862  
386.000000	0.521695  
386.500000	0.467363  
387.000000	0.401506  
387.500000	0.383397  
388.000000	0.449552  
388.500000	0.417370  
389.000000	0.362669  
389.500000	0.368249  
390.000000	0.460560  
390.500000	0.606546  
391.000000	0.740741  
391.500000	0.827240  
392.000000	0.882251  
392.500000	0.959296  
393.000000	0.943241  
393.500000	0.823328  
394.000000	0.671921  
394.500000	0.533128  
395.000000	0.409050  
395.500000	0.329564  
396.000000	0.285762  
396.500000	0.264039  
397.000000	0.340192  
397.500000	0.415111  
398.000000	0.453389  
398.500000	0.473142  
399.000000	0.469417  
399.500000	0.409904  
400.000000	0.367288  
400.500000	0.309838  
401.000000	0.249496  
401.500000	0.250634  
402.000000	0.284349  
402.500000	0.337880  
403.000000	0.425024  
403.500000	0.505839  
404.000000	0.530817  
404.500000	0.551535  
405.000000	0.554923  
405.500000	0.536260  
406.000000	0.512711  
406.500000	0.475755  
407.000000	0.465047  
407.500000	0.479535  
408.000000	0.518419  
408.500000	0.532126  
409.000000	0.540919  
409.500000	0.523254  
410.000000	0.494399  
410.500000	0.437599  
411.000000	0.347830  
411.500000	0.251721  
412.000000	0.184590  
412.500000	0.157006  
413.000000	0.184682  
413.500000	0.247787  
414.000000	0.318082  
414.500000	0.401969  
415.000000	0.440983  
415.500000	0.445851  
416.000000	0.407523  
416.500000	0.353176  
417.000000	0.280399  
417.500000	0.240126  
418.000000	0.228828  
418.500000	0.236798  
419.000000	0.291958  
419.500000	0.299233  
420.000000	0.285647  
420.500000	0.249586  
421.000000	0.221533  
421.500000	0.159533  
422.000000	0.115131  
422.500000	0.076339  
423.000000	0.045924  
423.500000	0.069337  
424.000000	0.084655  
424.500000	0.096736  
425.000000	0.122346  
425.500000	0.176309  
426.000000	0.241002  
426.500000	0.326116  
427.000000	0.396344  
427.500000	0.449245  
428.000000	0.494243  
428.500000	0.507599  
429.000000	0.492452  
429.500000	0.445447  
430.000000	0.391462  
430.500000	0.350609  
431.000000	0.336827  
431.500000	0.339483  
432.000000	0.367583  
432.500000	0.405026  
433.000000	0.429127  
433.500000	0.447768  
434.000000	0.465821  
434.500000	0.455573  
435.000000	0.442857  
435.500000	0.414118  
436.000000	0.383972  
436.500000	0.382557  
437.000000	0.400023  
437.500000	0.406359  
438.000000	0.406719  
438.500000	0.416504  
439.000000	0.407386  
439.500000	0.406133  
440.000000	0.375948  
440.500000	0.328106  
441.000000	0.290865  
441.500000	0.275688  
442.000000	0.264997  
442.500000	0.259930  
443.000000	0.276869  
443.500000	0.294560  
444.000000	0.327035  
444.500000	0.345679  

