PE FL                   SPECTRUM    ASCII       PEDS        1.60        
  -1
PP68A2~1
23/10/10
14:46:11.00
23/10/10
14:46:11.00


444.500000
1









LS55
45.00
5.00
5.00
SCAN
1
20
100
100
0
500
0
2
0
1
7
ON
500 450 
1 0 0
#HDR
-1
-1
#GR
NM

0.00002384185791015625
0.0
250.000000
0.500000
390
8
5.637000
-4.122639
#DATA
250.000000	5.637000  
250.500000	2.782931  
251.000000	0.338478  
251.500000	-1.658118 
252.000000	-2.976191 
252.500000	-3.889198 
253.000000	-4.122639 
253.500000	-3.925310 
254.000000	-3.348755 
254.500000	-2.746165 
255.000000	-2.189487 
255.500000	-1.543321 
256.000000	-0.792130 
256.500000	-0.090982 
257.000000	0.389392  
257.500000	0.679101  
258.000000	0.864358  
258.500000	1.119671  
259.000000	1.195177  
259.500000	0.996449  
260.000000	0.528391  
260.500000	-0.067288 
261.000000	-0.630098 
261.500000	-1.021747 
262.000000	-1.447498 
262.500000	-1.443065 
263.000000	-0.964653 
263.500000	0.005795  
264.000000	1.186571  
264.500000	2.162696  
265.000000	2.592506  
265.500000	2.540920  
266.000000	2.121596  
266.500000	0.915744  
267.000000	-0.421875 
267.500000	-1.949793 
268.000000	-3.144715 
268.500000	-3.853274 
269.000000	-4.017419 
269.500000	-3.958038 
270.000000	-3.436686 
270.500000	-2.856222 
271.000000	-2.476968 
271.500000	-1.856617 
272.000000	-1.423996 
272.500000	-1.200225 
273.000000	-0.903153 
273.500000	-0.487606 
274.000000	0.076764  
274.500000	0.884824  
275.000000	1.267976  
275.500000	1.225936  
276.000000	1.069691  
276.500000	0.629214  
277.000000	0.052639  
277.500000	-0.703141 
278.000000	-1.496317 
278.500000	-1.777033 
279.000000	-1.007229 
279.500000	0.040272  
280.000000	1.184778  
280.500000	2.470308  
281.000000	3.380824  
281.500000	3.918907  
282.000000	3.706823  
282.500000	2.572687  
283.000000	1.096842  
283.500000	-0.106586 
284.000000	-1.102838 
284.500000	-1.826542 
285.000000	-2.152058 
285.500000	-2.127131 
286.000000	-1.354443 
286.500000	-0.344724 
287.000000	0.629138  
287.500000	1.313037  
288.000000	1.972709  
288.500000	2.512733  
289.000000	2.760875  
289.500000	2.513768  
290.000000	1.918652  
290.500000	1.328556  
291.000000	0.531526  
291.500000	0.017337  
292.000000	-0.347705 
292.500000	-0.586733 
293.000000	-0.625022 
293.500000	-0.335135 
294.000000	-0.293855 
294.500000	-0.371981 
295.000000	-0.429408 
295.500000	-0.715581 
296.000000	-0.936326 
296.500000	-1.099037 
297.000000	-1.107150 
297.500000	-1.123281 
298.000000	-0.929473 
298.500000	-0.843401 
299.000000	-0.386367 
299.500000	0.228160  
300.000000	0.852384  
300.500000	1.374879  
301.000000	1.693576  
301.500000	1.990537  
302.000000	2.106852  
302.500000	2.067794  
303.000000	1.591246  
303.500000	1.278310  
304.000000	0.929486  
304.500000	0.606488  
305.000000	0.205332  
305.500000	-0.423175 
306.000000	-0.924278 
306.500000	-1.093108 
307.000000	-1.162842 
307.500000	-1.230697 
308.000000	-0.809949 
308.500000	-0.073616 
309.000000	0.705248  
309.500000	1.412685  
310.000000	1.988621  
310.500000	2.310578  
311.000000	2.491661  
311.500000	2.309583  
312.000000	1.595708  
312.500000	0.876305  
313.000000	0.290424  
313.500000	-0.317112 
314.000000	-0.979977 
314.500000	-1.511219 
315.000000	-1.746325 
315.500000	-1.656445 
316.000000	-1.344099 
316.500000	-0.994149 
317.000000	-0.625925 
317.500000	-0.180571 
318.000000	0.071973  
318.500000	0.182645  
319.000000	-0.028414 
319.500000	-0.180789 
320.000000	-0.481652 
320.500000	-0.706456 
321.000000	-0.704698 
321.500000	-0.634222 
322.000000	-0.537144 
322.500000	-0.331344 
323.000000	0.011584  
323.500000	0.168301  
324.000000	0.422762  
324.500000	0.370344  
325.000000	0.111947  
325.500000	-0.236610 
326.000000	-0.617001 
326.500000	-1.031892 
327.000000	-1.368451 
327.500000	-1.672393 
328.000000	-1.867788 
328.500000	-1.773904 
329.000000	-1.502885 
329.500000	-1.125081 
330.000000	-0.804618 
330.500000	-0.481213 
331.000000	-0.141282 
331.500000	0.191556  
332.000000	0.278908  
332.500000	0.429619  
333.000000	0.497395  
333.500000	0.553657  
334.000000	0.599700  
334.500000	0.517014  
335.000000	0.337175  
335.500000	0.173563  
336.000000	0.057772  
336.500000	-0.030858 
337.000000	0.076723  
337.500000	0.216410  
338.000000	0.357555  
338.500000	0.504056  
339.000000	0.662432  
339.500000	0.866550  
340.000000	0.982739  
340.500000	1.087779  
341.000000	1.263626  
341.500000	1.430408  
342.000000	1.550069  
342.500000	1.585797  
343.000000	1.520140  
343.500000	1.400341  
344.000000	1.265436  
344.500000	1.015344  
345.000000	0.700424  
345.500000	0.540553  
346.000000	0.450026  
346.500000	0.343137  
347.000000	0.311192  
347.500000	0.263763  
348.000000	0.353429  
348.500000	0.563538  
349.000000	0.820507  
349.500000	1.139830  
350.000000	1.468655  
350.500000	1.751331  
351.000000	1.962862  
351.500000	2.145912  
352.000000	2.207223  
352.500000	2.318724  
353.000000	2.389334  
353.500000	2.491353  
354.000000	2.667849  
354.500000	2.679969  
355.000000	2.565161  
355.500000	2.410413  
356.000000	2.241484  
356.500000	1.962649  
357.000000	1.772925  
357.500000	1.607081  
358.000000	1.564013  
358.500000	1.714509  
359.000000	1.892078  
359.500000	2.020043  
360.000000	2.144324  
360.500000	2.263545  
361.000000	2.253205  
361.500000	2.262566  
362.000000	2.229413  
362.500000	2.255146  
363.000000	2.308287  
363.500000	2.368238  
364.000000	2.438702  
364.500000	2.468830  
365.000000	2.515706  
365.500000	2.413171  
366.000000	2.290730  
366.500000	2.193815  
367.000000	2.120628  
367.500000	2.074469  
368.000000	2.063264  
368.500000	2.171853  
369.000000	2.308445  
369.500000	2.504460  
370.000000	2.619960  
370.500000	2.703859  
371.000000	2.783818  
371.500000	2.798438  
372.000000	2.763912  
372.500000	2.673447  
373.000000	2.593886  
373.500000	2.436853  
374.000000	2.263064  
374.500000	2.053164  
375.000000	1.865452  
375.500000	1.791749  
376.000000	1.785860  
376.500000	1.825401  
377.000000	1.953319  
377.500000	2.116249  
378.000000	2.261123  
378.500000	2.341794  
379.000000	2.343523  
379.500000	2.261662  
380.000000	2.128590  
380.500000	2.046410  
381.000000	1.885108  
381.500000	1.771008  
382.000000	1.699810  
382.500000	1.611794  
383.000000	1.549276  
383.500000	1.520425  
384.000000	1.519052  
384.500000	1.474847  
385.000000	1.474920  
385.500000	1.415267  
386.000000	1.357191  
386.500000	1.321895  
387.000000	1.221949  
387.500000	1.092681  
388.000000	0.966405  
388.500000	0.911328  
389.000000	0.823305  
389.500000	0.778584  
390.000000	0.755637  
390.500000	0.736763  
391.000000	0.790416  
391.500000	0.805699  
392.000000	0.846423  
392.500000	0.864367  
393.000000	0.893473  
393.500000	0.860713  
394.000000	0.791447  
394.500000	0.736206  
395.000000	0.636944  
395.500000	0.575214  
396.000000	0.496010  
396.500000	0.514155  
397.000000	0.569624  
397.500000	0.635962  
398.000000	0.644189  
398.500000	0.633615  
399.000000	0.654892  
399.500000	0.646724  
400.000000	0.625368  
400.500000	0.561797  
401.000000	0.564693  
401.500000	0.607033  
402.000000	0.685529  
402.500000	0.726352  
403.000000	0.739186  
403.500000	0.757158  
404.000000	0.763160  
404.500000	0.683685  
405.000000	0.564424  
405.500000	0.457289  
406.000000	0.365419  
406.500000	0.338094  
407.000000	0.317057  
407.500000	0.304766  
408.000000	0.299402  
408.500000	0.323139  
409.000000	0.294994  
409.500000	0.218540  
410.000000	0.146388  
410.500000	0.091459  
411.000000	0.078854  
411.500000	0.093205  
412.000000	0.114283  
412.500000	0.202127  
413.000000	0.342193  
413.500000	0.463091  
414.000000	0.535063  
414.500000	0.586697  
415.000000	0.600845  
415.500000	0.602856  
416.000000	0.570571  
416.500000	0.456641  
417.000000	0.349989  
417.500000	0.272784  
418.000000	0.236633  
418.500000	0.220018  
419.000000	0.241090  
419.500000	0.262655  
420.000000	0.320165  
420.500000	0.401450  
421.000000	0.446390  
421.500000	0.443797  
422.000000	0.409838  
422.500000	0.365463  
423.000000	0.355716  
423.500000	0.368261  
424.000000	0.361045  
424.500000	0.354394  
425.000000	0.336371  
425.500000	0.364669  
426.000000	0.394623  
426.500000	0.382660  
427.000000	0.341852  
427.500000	0.341191  
428.000000	0.338860  
428.500000	0.330735  
429.000000	0.314856  
429.500000	0.279369  
430.000000	0.260223  
430.500000	0.258838  
431.000000	0.250915  
431.500000	0.214367  
432.000000	0.211194  
432.500000	0.196795  
433.000000	0.191076  
433.500000	0.196218  
434.000000	0.207008  
434.500000	0.213347  
435.000000	0.229936  
435.500000	0.248962  
436.000000	0.243041  
436.500000	0.261123  
437.000000	0.257298  
437.500000	0.257297  
438.000000	0.269215  
438.500000	0.296153  
439.000000	0.324338  
439.500000	0.362490  
440.000000	0.394983  
440.500000	0.401164  
441.000000	0.415939  
441.500000	0.386700  
442.000000	0.336757  
442.500000	0.285607  
443.000000	0.242401  
443.500000	0.211973  
444.000000	0.212723  
444.500000	0.243424  

