PE FL                   SPECTRUM    ASCII       PEDS        1.60        
  -1
PP18A2~1
23/10/10
14:42:49.00
23/10/10
14:42:49.00


444.500000
1









LS55
20.00
5.00
5.00
SCAN
1
20
100
100
0
500
0
2
0
1
7
ON
500 450 
1 0 0
#HDR
-1
-1
#GR
NM

0.00002384185791015625
0.0
250.000000
0.500000
390
8
1.967394
-4.999999
#DATA
250.000000	-4.999999 
250.500000	-4.107745 
251.000000	-3.405049 
251.500000	-2.856959 
252.000000	-1.981562 
252.500000	-0.922389 
253.000000	-0.365861 
253.500000	-0.164289 
254.000000	0.436535  
254.500000	1.021592  
255.000000	1.607995  
255.500000	1.805495  
256.000000	1.808109  
256.500000	1.967394  
257.000000	1.939734  
257.500000	1.508102  
258.000000	0.606722  
258.500000	-0.111118 
259.000000	-0.593801 
259.500000	-0.999202 
260.000000	-1.386841 
260.500000	-1.809906 
261.000000	-1.983720 
261.500000	-2.422498 
262.000000	-2.785086 
262.500000	-2.860838 
263.000000	-2.547010 
263.500000	-1.771218 
264.000000	-0.897570 
264.500000	0.247204  
265.000000	1.338563  
265.500000	1.950758  
266.000000	1.626219  
266.500000	0.672047  
267.000000	-0.366350 
267.500000	-1.431766 
268.000000	-2.261937 
268.500000	-2.756971 
269.000000	-2.696962 
269.500000	-2.187857 
270.000000	-1.570053 
270.500000	-0.949164 
271.000000	-0.744422 
271.500000	-0.716905 
272.000000	-0.639237 
272.500000	-0.287307 
273.000000	0.198416  
273.500000	0.742829  
274.000000	1.253036  
274.500000	1.647572  
275.000000	1.843652  
275.500000	1.766333  
276.000000	1.255564  
276.500000	0.664695  
277.000000	0.691112  
277.500000	1.046938  
278.000000	1.443024  
278.500000	1.590483  
279.000000	1.785955  
279.500000	1.890689  
280.000000	1.881713  
280.500000	1.362024  
281.000000	0.549412  
281.500000	0.136200  
282.000000	-0.030547 
282.500000	-0.264630 
283.000000	-0.627068 
283.500000	-1.033237 
284.000000	-1.203959 
284.500000	-1.229944 
285.000000	-1.173231 
285.500000	-1.226803 
286.000000	-1.076447 
286.500000	-0.774029 
287.000000	-0.524585 
287.500000	-0.502293 
288.000000	-0.880744 
288.500000	-1.139172 
289.000000	-1.394723 
289.500000	-1.308789 
290.000000	-1.342550 
290.500000	-1.043700 
291.000000	-0.581610 
291.500000	-0.253878 
292.000000	-0.070459 
292.500000	-0.301175 
293.000000	-0.810200 
293.500000	-1.509319 
294.000000	-1.775909 
294.500000	-2.321401 
295.000000	-2.545659 
295.500000	-2.565093 
296.000000	-2.192650 
296.500000	-1.447237 
297.000000	-0.700058 
297.500000	0.023559  
298.000000	0.468183  
298.500000	1.118160  
299.000000	1.188820  
299.500000	1.046884  
300.000000	0.456147  
300.500000	-0.330185 
301.000000	-1.166516 
301.500000	-2.192782 
302.000000	-2.921760 
302.500000	-3.594074 
303.000000	-3.882092 
303.500000	-4.065164 
304.000000	-3.955799 
304.500000	-3.676753 
305.000000	-3.073457 
305.500000	-2.458838 
306.000000	-2.118643 
306.500000	-1.701889 
307.000000	-1.270855 
307.500000	-0.749796 
308.000000	-0.385136 
308.500000	-0.178209 
309.000000	0.020031  
309.500000	0.470121  
310.000000	0.846030  
310.500000	1.151312  
311.000000	1.411911  
311.500000	1.462101  
312.000000	1.598673  
312.500000	1.481437  
313.000000	1.109359  
313.500000	0.446081  
314.000000	-0.274480 
314.500000	-0.921064 
315.000000	-1.296645 
315.500000	-1.486000 
316.000000	-1.679549 
316.500000	-1.617828 
317.000000	-1.488737 
317.500000	-1.206037 
318.000000	-0.878011 
318.500000	-0.700024 
319.000000	-0.631104 
319.500000	-0.592978 
320.000000	-0.601039 
320.500000	-0.795796 
321.000000	-0.967914 
321.500000	-1.248536 
322.000000	-1.427616 
322.500000	-1.469151 
323.000000	-1.457181 
323.500000	-1.338383 
324.000000	-1.060883 
324.500000	-0.702012 
325.000000	-0.302826 
325.500000	0.063038  
326.000000	0.189116  
326.500000	0.185997  
327.000000	0.093542  
327.500000	0.069178  
328.000000	0.045815  
328.500000	-0.012448 
329.000000	-0.009003 
329.500000	0.101948  
330.000000	0.316801  
330.500000	0.436314  
331.000000	0.519108  
331.500000	0.490262  
332.000000	0.385764  
332.500000	0.377543  
333.000000	0.304922  
333.500000	0.195382  
334.000000	0.134011  
334.500000	0.105162  
335.000000	0.041901  
335.500000	-0.064541 
336.000000	-0.214680 
336.500000	-0.516379 
337.000000	-0.621354 
337.500000	-0.655287 
338.000000	-0.576501 
338.500000	-0.340745 
339.000000	-0.036082 
339.500000	0.240414  
340.000000	0.434169  
340.500000	0.541694  
341.000000	0.415507  
341.500000	0.236048  
342.000000	-0.101901 
342.500000	-0.343780 
343.000000	-0.406433 
343.500000	-0.330213 
344.000000	-0.222038 
344.500000	-0.055981 
345.000000	0.106613  
345.500000	0.220930  
346.000000	0.274987  
346.500000	0.082281  
347.000000	-0.190851 
347.500000	-0.315348 
348.000000	-0.314431 
348.500000	-0.339435 
349.000000	-0.262047 
349.500000	-0.171647 
350.000000	-0.025456 
350.500000	0.201155  
351.000000	0.355703  
351.500000	0.299421  
352.000000	0.304243  
352.500000	0.347892  
353.000000	0.306820  
353.500000	0.269738  
354.000000	0.134851  
354.500000	-0.045998 
355.000000	-0.116875 
355.500000	-0.040206 
356.000000	-0.067665 
356.500000	-0.012541 
357.000000	0.099745  
357.500000	0.266000  
358.000000	0.480353  
358.500000	0.529477  
359.000000	0.433171  
359.500000	0.370853  
360.000000	0.364639  
360.500000	0.381605  
361.000000	0.426784  
361.500000	0.454356  
362.000000	0.543632  
362.500000	0.724971  
363.000000	0.788839  
363.500000	0.786238  
364.000000	0.790112  
364.500000	0.771122  
365.000000	0.722574  
365.500000	0.628248  
366.000000	0.486136  
366.500000	0.345874  
367.000000	0.238627  
367.500000	0.114125  
368.000000	-0.012689 
368.500000	-0.126680 
369.000000	-0.102374 
369.500000	-0.058979 
370.000000	0.008363  
370.500000	0.133183  
371.000000	0.279239  
371.500000	0.418085  
372.000000	0.554495  
372.500000	0.649414  
373.000000	0.711030  
373.500000	0.898108  
374.000000	1.017956  
374.500000	1.054093  
375.000000	1.065742  
375.500000	1.054043  
376.000000	0.977927  
376.500000	0.933421  
377.000000	0.814807  
377.500000	0.685926  
378.000000	0.655831  
378.500000	0.659459  
379.000000	0.647574  
379.500000	0.687686  
380.000000	0.722075  
380.500000	0.745741  
381.000000	0.781588  
381.500000	0.770218  
382.000000	0.729159  
382.500000	0.712825  
383.000000	0.756593  
383.500000	0.783433  
384.000000	0.852718  
384.500000	0.960413  
385.000000	1.007158  
385.500000	1.034178  
386.000000	1.048417  
386.500000	1.002841  
387.000000	0.947082  
387.500000	0.897050  
388.000000	0.805047  
388.500000	0.757865  
389.000000	0.739303  
389.500000	0.709933  
390.000000	0.693839  
390.500000	0.725622  
391.000000	0.744684  
391.500000	0.796704  
392.000000	0.875101  
392.500000	0.941610  
393.000000	1.012329  
393.500000	1.067067  
394.000000	1.107885  
394.500000	1.124223  
395.000000	1.097887  
395.500000	1.025303  
396.000000	0.964975  
396.500000	0.878278  
397.000000	0.779956  
397.500000	0.722595  
398.000000	0.650916  
398.500000	0.620497  
399.000000	0.622329  
399.500000	0.635508  
400.000000	0.655102  
400.500000	0.693922  
401.000000	0.740429  
401.500000	0.788652  
402.000000	0.851848  
402.500000	0.882898  
403.000000	0.898603  
403.500000	0.900552  
404.000000	0.910447  
404.500000	0.931225  
405.000000	0.945808  
405.500000	0.943017  
406.000000	0.928832  
406.500000	0.931902  
407.000000	0.927586  
407.500000	0.918604  
408.000000	0.883147  
408.500000	0.857137  
409.000000	0.816500  
409.500000	0.756521  
410.000000	0.691841  
410.500000	0.639588  
411.000000	0.619141  
411.500000	0.597482  
412.000000	0.593420  
412.500000	0.620557  
413.000000	0.659718  
413.500000	0.697199  
414.000000	0.718136  
414.500000	0.708235  
415.000000	0.702255  
415.500000	0.699574  
416.000000	0.679660  
416.500000	0.630270  
417.000000	0.582960  
417.500000	0.559781  
418.000000	0.579670  
418.500000	0.628919  
419.000000	0.680356  
419.500000	0.733548  
420.000000	0.801327  
420.500000	0.888794  
421.000000	0.943042  
421.500000	0.955417  
422.000000	0.952855  
422.500000	0.946506  
423.000000	0.939084  
423.500000	0.908305  
424.000000	0.869052  
424.500000	0.832508  
425.000000	0.823955  
425.500000	0.812361  
426.000000	0.769044  
426.500000	0.737326  
427.000000	0.698681  
427.500000	0.685618  
428.000000	0.661373  
428.500000	0.641430  
429.000000	0.650753  
429.500000	0.671392  
430.000000	0.686594  
430.500000	0.693679  
431.000000	0.705885  
431.500000	0.702442  
432.000000	0.701659  
432.500000	0.678160  
433.000000	0.651630  
433.500000	0.635936  
434.000000	0.630680  
434.500000	0.630210  
435.000000	0.648249  
435.500000	0.691422  
436.000000	0.734908  
436.500000	0.770491  
437.000000	0.779273  
437.500000	0.782808  
438.000000	0.779530  
438.500000	0.769191  
439.000000	0.751409  
439.500000	0.734672  
440.000000	0.742001  
440.500000	0.774743  
441.000000	0.828502  
441.500000	0.868506  
442.000000	0.922815  
442.500000	0.966816  
443.000000	0.998382  
443.500000	1.016769  
444.000000	1.012797  
444.500000	0.976642  

