PE FL                   SPECTRUM    ASCII       PEDS        1.60        
  -1
PPD7B2~1
23/10/10
14:46:52.00
23/10/10
14:46:52.00


444.500000
1









LS55
50.00
5.00
5.00
SCAN
1
20
100
100
0
500
0
2
0
1
7
ON
500 450 
1 0 0
#HDR
-1
-1
#GR
NM

0.00002384185791015625
0.0
250.000000
0.500000
390
8
2.766863
-4.728607
#DATA
250.000000	-1.393999 
250.500000	-0.885543 
251.000000	-0.677168 
251.500000	-0.341055 
252.000000	-0.552777 
252.500000	-0.896585 
253.000000	-1.612727 
253.500000	-2.090852 
254.000000	-2.936477 
254.500000	-3.579385 
255.000000	-4.063847 
255.500000	-4.429634 
256.000000	-4.502097 
256.500000	-4.728607 
257.000000	-4.680390 
257.500000	-4.704885 
258.000000	-4.483570 
258.500000	-4.242780 
259.000000	-3.868979 
259.500000	-3.556578 
260.000000	-3.255497 
260.500000	-2.962778 
261.000000	-2.695148 
261.500000	-2.211695 
262.000000	-1.716797 
262.500000	-1.103274 
263.000000	-0.282686 
263.500000	0.529562  
264.000000	1.208223  
264.500000	1.713008  
265.000000	1.837718  
265.500000	1.533925  
266.000000	0.938998  
266.500000	-0.077423 
267.000000	-1.104895 
267.500000	-2.014348 
268.000000	-2.794062 
268.500000	-2.914227 
269.000000	-2.483926 
269.500000	-1.808809 
270.000000	-0.903714 
270.500000	0.051442  
271.000000	0.683698  
271.500000	1.291958  
272.000000	1.354105  
272.500000	0.881413  
273.000000	0.388481  
273.500000	-0.100774 
274.000000	-0.694250 
274.500000	-1.417581 
275.000000	-1.938920 
275.500000	-2.177558 
276.000000	-1.911375 
276.500000	-1.825181 
277.000000	-1.615017 
277.500000	-1.113008 
278.000000	-0.429823 
278.500000	0.103164  
279.000000	0.101595  
279.500000	-0.467415 
280.000000	-1.322095 
280.500000	-2.128340 
281.000000	-3.197598 
281.500000	-4.130951 
282.000000	-4.538842 
282.500000	-4.316605 
283.000000	-3.587512 
283.500000	-2.729746 
284.000000	-1.936210 
284.500000	-1.296242 
285.000000	-0.732019 
285.500000	-0.338067 
286.000000	-0.417538 
286.500000	-0.341792 
287.000000	-0.062495 
287.500000	0.425043  
288.000000	0.960096  
288.500000	1.541495  
289.000000	2.049751  
289.500000	2.538221  
290.000000	2.766863  
290.500000	2.493866  
291.000000	1.935563  
291.500000	1.245398  
292.000000	0.744958  
292.500000	0.323905  
293.000000	-0.014846 
293.500000	-0.113034 
294.000000	0.214247  
294.500000	0.586777  
295.000000	1.005974  
295.500000	1.277632  
296.000000	1.332220  
296.500000	1.556968  
297.000000	1.837288  
297.500000	1.962330  
298.000000	2.008532  
298.500000	2.312494  
299.000000	2.509051  
299.500000	2.512053  
300.000000	2.230766  
300.500000	1.583998  
301.000000	0.862938  
301.500000	-0.022779 
302.000000	-0.877924 
302.500000	-1.921860 
303.000000	-2.616402 
303.500000	-2.935867 
304.000000	-2.975408 
304.500000	-2.607481 
305.000000	-2.064057 
305.500000	-1.253534 
306.000000	-0.385212 
306.500000	0.650788  
307.000000	1.265606  
307.500000	1.774185  
308.000000	2.060910  
308.500000	2.203932  
309.000000	2.410294  
309.500000	2.300481  
310.000000	2.007022  
310.500000	1.653684  
311.000000	1.554916  
311.500000	1.231450  
312.000000	0.941051  
312.500000	0.598016  
313.000000	0.594219  
313.500000	1.019248  
314.000000	1.438442  
314.500000	1.593092  
315.000000	1.799325  
315.500000	2.058944  
316.000000	2.016519  
316.500000	1.686864  
317.000000	1.097430  
317.500000	0.568396  
318.000000	0.128902  
318.500000	-0.255971 
319.000000	-0.800436 
319.500000	-1.115344 
320.000000	-1.204340 
320.500000	-1.203059 
321.000000	-1.094589 
321.500000	-1.025094 
322.000000	-0.850571 
322.500000	-0.629344 
323.000000	-0.353612 
323.500000	-0.239281 
324.000000	0.002889  
324.500000	0.234866  
325.000000	0.440674  
325.500000	0.507381  
326.000000	0.497839  
326.500000	0.385961  
327.000000	0.279047  
327.500000	0.104108  
328.000000	-0.140453 
328.500000	-0.338985 
329.000000	-0.461409 
329.500000	-0.496456 
330.000000	-0.660578 
330.500000	-0.896322 
331.000000	-1.165931 
331.500000	-1.361803 
332.000000	-1.447074 
332.500000	-1.404250 
333.000000	-1.253088 
333.500000	-1.019074 
334.000000	-0.732176 
334.500000	-0.444030 
335.000000	-0.248797 
335.500000	-0.183415 
336.000000	-0.140698 
336.500000	-0.039090 
337.000000	0.114102  
337.500000	0.275037  
338.000000	0.419739  
338.500000	0.515580  
339.000000	0.709307  
339.500000	0.717893  
340.000000	0.474718  
340.500000	0.091797  
341.000000	-0.214683 
341.500000	-0.545852 
342.000000	-0.912420 
342.500000	-1.187379 
343.000000	-1.403655 
343.500000	-1.324092 
344.000000	-1.186375 
344.500000	-1.055538 
345.000000	-0.832652 
345.500000	-0.424429 
346.000000	0.020068  
346.500000	0.324016  
347.000000	0.519531  
347.500000	0.581720  
348.000000	0.560622  
348.500000	0.382014  
349.000000	0.166728  
349.500000	-0.029238 
350.000000	-0.121106 
350.500000	-0.107501 
351.000000	-0.010487 
351.500000	0.203545  
352.000000	0.421900  
352.500000	0.544089  
353.000000	0.572494  
353.500000	0.629525  
354.000000	0.710173  
354.500000	0.726811  
355.000000	0.732890  
355.500000	0.805580  
356.000000	0.951570  
356.500000	1.137802  
357.000000	1.187586  
357.500000	1.116822  
358.000000	1.167994  
358.500000	1.285129  
359.000000	1.338526  
359.500000	1.331542  
360.000000	1.305389  
360.500000	1.271486  
361.000000	1.258157  
361.500000	1.196946  
362.000000	1.060677  
362.500000	0.981910  
363.000000	0.960911  
363.500000	0.944904  
364.000000	0.889922  
364.500000	0.920915  
365.000000	0.884959  
365.500000	0.774486  
366.000000	0.657524  
366.500000	0.515791  
367.000000	0.395668  
367.500000	0.301782  
368.000000	0.187672  
368.500000	-0.006583 
369.000000	-0.008173 
369.500000	0.047697  
370.000000	0.027667  
370.500000	0.060313  
371.000000	0.189870  
371.500000	0.363744  
372.000000	0.608500  
372.500000	0.867092  
373.000000	1.022867  
373.500000	1.233464  
374.000000	1.434022  
374.500000	1.505426  
375.000000	1.536101  
375.500000	1.556798  
376.000000	1.556553  
376.500000	1.594211  
377.000000	1.666394  
377.500000	1.787190  
378.000000	1.948986  
378.500000	2.077729  
379.000000	2.048318  
379.500000	1.955235  
380.000000	1.763054  
380.500000	1.533758  
381.000000	1.320118  
381.500000	1.129780  
382.000000	1.050721  
382.500000	1.100612  
383.000000	1.276076  
383.500000	1.438108  
384.000000	1.650498  
384.500000	1.786704  
385.000000	1.877510  
385.500000	1.925036  
386.000000	1.919422  
386.500000	1.863238  
387.000000	1.764029  
387.500000	1.731519  
388.000000	1.675393  
388.500000	1.706160  
389.000000	1.748793  
389.500000	1.828315  
390.000000	1.901262  
390.500000	1.982634  
391.000000	2.025172  
391.500000	2.000932  
392.000000	1.951767  
392.500000	1.857745  
393.000000	1.765925  
393.500000	1.662519  
394.000000	1.587730  
394.500000	1.552039  
395.000000	1.554228  
395.500000	1.560073  
396.000000	1.571244  
396.500000	1.582389  
397.000000	1.575738  
397.500000	1.571465  
398.000000	1.547074  
398.500000	1.528966  
399.000000	1.529567  
399.500000	1.563083  
400.000000	1.584141  
400.500000	1.636064  
401.000000	1.643886  
401.500000	1.593722  
402.000000	1.497580  
402.500000	1.369475  
403.000000	1.245348  
403.500000	1.128728  
404.000000	1.050762  
404.500000	1.007992  
405.000000	1.083777  
405.500000	1.184484  
406.000000	1.275578  
406.500000	1.318009  
407.000000	1.326271  
407.500000	1.309569  
408.000000	1.263163  
408.500000	1.187284  
409.000000	1.071577  
409.500000	1.026340  
410.000000	0.990339  
410.500000	0.962942  
411.000000	0.930104  
411.500000	0.903061  
412.000000	0.879289  
412.500000	0.863029  
413.000000	0.819979  
413.500000	0.745874  
414.000000	0.690527  
414.500000	0.638867  
415.000000	0.594420  
415.500000	0.541758  
416.000000	0.508232  
416.500000	0.494814  
417.000000	0.499916  
417.500000	0.529257  
418.000000	0.538629  
418.500000	0.544818  
419.000000	0.567426  
419.500000	0.588420  
420.000000	0.578769  
420.500000	0.543841  
421.000000	0.502106  
421.500000	0.452801  
422.000000	0.441659  
422.500000	0.418657  
423.000000	0.401358  
423.500000	0.412430  
424.000000	0.463009  
424.500000	0.518509  
425.000000	0.573949  
425.500000	0.618179  
426.000000	0.612913  
426.500000	0.605385  
427.000000	0.574033  
427.500000	0.524258  
428.000000	0.464872  
428.500000	0.408073  
429.000000	0.367036  
429.500000	0.318466  
430.000000	0.279579  
430.500000	0.248167  
431.000000	0.225746  
431.500000	0.218014  
432.000000	0.229148  
432.500000	0.249553  
433.000000	0.277984  
433.500000	0.324787  
434.000000	0.372918  
434.500000	0.398517  
435.000000	0.410626  
435.500000	0.412821  
436.000000	0.395607  
436.500000	0.363675  
437.000000	0.328402  
437.500000	0.290843  
438.000000	0.260104  
438.500000	0.249095  
439.000000	0.235868  
439.500000	0.234288  
440.000000	0.254025  
440.500000	0.283728  
441.000000	0.305540  
441.500000	0.320615  
442.000000	0.316981  
442.500000	0.287823  
443.000000	0.256013  
443.500000	0.222283  
444.000000	0.191269  
444.500000	0.173181  

