PE FL                   SPECTRUM    ASCII       PEDS        1.60        
  -1
PP38A2~1
23/10/10
14:44:10.00
23/10/10
14:44:10.00


444.500000
1









LS55
30.00
5.00
5.00
SCAN
1
20
100
100
0
500
0
2
0
1
7
ON
500 450 
1 0 0
#HDR
-1
-1
#GR
NM

0.00002384185791015625
0.0
250.000000
0.500000
390
8
5.926159
-5.000000
#DATA
250.000000	-5.000000 
250.500000	-3.407846 
251.000000	-2.180989 
251.500000	-1.128563 
252.000000	-0.207935 
252.500000	0.008797  
253.000000	-0.006102 
253.500000	-0.200924 
254.000000	-0.635672 
254.500000	-0.886264 
255.000000	-0.998085 
255.500000	-1.227018 
256.000000	-1.239737 
256.500000	-0.873389 
257.000000	-0.997176 
257.500000	-1.179319 
258.000000	-1.378275 
258.500000	-1.616057 
259.000000	-1.626373 
259.500000	-1.559931 
260.000000	-2.007860 
260.500000	-2.183406 
261.000000	-1.647815 
261.500000	-1.173767 
262.000000	-0.718006 
262.500000	-0.422399 
263.000000	-0.247886 
263.500000	-0.064273 
264.000000	0.351878  
264.500000	-0.180831 
265.000000	-0.998601 
265.500000	-1.733104 
266.000000	-2.277691 
266.500000	-2.427406 
267.000000	-2.361956 
267.500000	-2.181746 
268.000000	-2.073077 
268.500000	-1.620512 
269.000000	-1.789237 
269.500000	-1.999712 
270.000000	-2.457346 
270.500000	-2.855766 
271.000000	-3.092933 
271.500000	-2.910794 
272.000000	-2.293441 
272.500000	-1.480916 
273.000000	-0.487222 
273.500000	0.074599  
274.000000	0.707894  
274.500000	0.647586  
275.000000	0.329131  
275.500000	-0.006311 
276.000000	-0.430383 
276.500000	-0.850690 
277.000000	-0.813981 
277.500000	-0.353001 
278.000000	-0.039155 
278.500000	0.394791  
279.000000	0.455900  
279.500000	0.600322  
280.000000	0.979730  
280.500000	1.315539  
281.000000	1.518868  
281.500000	2.063927  
282.000000	3.004685  
282.500000	3.803491  
283.000000	4.242461  
283.500000	4.032720  
284.000000	3.419409  
284.500000	2.838628  
285.000000	1.958838  
285.500000	0.750207  
286.000000	-0.217673 
286.500000	-0.608847 
287.000000	-0.689061 
287.500000	-0.665807 
288.000000	-0.702003 
288.500000	-0.614593 
289.000000	-0.330750 
289.500000	-0.205114 
290.000000	-0.738131 
290.500000	-1.322817 
291.000000	-1.676030 
291.500000	-1.858087 
292.000000	-1.506084 
292.500000	-0.911785 
293.000000	-0.219174 
293.500000	0.708410  
294.000000	1.615883  
294.500000	2.123928  
295.000000	2.235815  
295.500000	2.113920  
296.000000	1.627814  
296.500000	1.456036  
297.000000	1.404650  
297.500000	1.196057  
298.000000	1.083924  
298.500000	1.004267  
299.000000	0.949232  
299.500000	0.957260  
300.000000	0.928721  
300.500000	0.633861  
301.000000	0.764511  
301.500000	1.218673  
302.000000	1.402777  
302.500000	1.489242  
303.000000	1.391219  
303.500000	1.295927  
304.000000	1.318122  
304.500000	1.181592  
305.000000	1.161399  
305.500000	1.588461  
306.000000	2.389094  
306.500000	3.096240  
307.000000	3.500568  
307.500000	3.948061  
308.000000	4.326106  
308.500000	4.838700  
309.000000	5.026035  
309.500000	5.104458  
310.000000	5.226637  
310.500000	5.514682  
311.000000	5.926159  
311.500000	5.922980  
312.000000	5.811983  
312.500000	5.668967  
313.000000	5.794982  
313.500000	5.827860  
314.000000	5.702835  
314.500000	5.617535  
315.000000	5.584334  
315.500000	5.783992  
316.000000	5.650262  
316.500000	5.342132  
317.000000	4.743966  
317.500000	4.227288  
318.000000	3.897044  
318.500000	3.605445  
319.000000	3.453807  
319.500000	3.437960  
320.000000	3.642728  
320.500000	3.819943  
321.000000	3.930315  
321.500000	3.783444  
322.000000	3.616878  
322.500000	3.464017  
323.000000	3.364967  
323.500000	3.277001  
324.000000	3.173660  
324.500000	3.194776  
325.000000	3.336565  
325.500000	3.462884  
326.000000	3.369412  
326.500000	3.183865  
327.000000	2.879398  
327.500000	2.633278  
328.000000	2.387203  
328.500000	2.003659  
329.000000	1.572158  
329.500000	1.285965  
330.000000	1.202794  
330.500000	1.081649  
331.000000	1.039032  
331.500000	0.991583  
332.000000	1.087535  
332.500000	1.231563  
333.000000	1.248863  
333.500000	1.221096  
334.000000	1.091983  
334.500000	1.012178  
335.000000	0.840196  
335.500000	0.672163  
336.000000	0.492201  
336.500000	0.490603  
337.000000	0.460722  
337.500000	0.515562  
338.000000	0.607969  
338.500000	0.667627  
339.000000	0.802551  
339.500000	0.763500  
340.000000	0.662483  
340.500000	0.539931  
341.000000	0.677041  
341.500000	0.740642  
342.000000	0.839709  
342.500000	0.872274  
343.000000	0.838886  
343.500000	0.806377  
344.000000	0.546376  
344.500000	0.123945  
345.000000	-0.392839 
345.500000	-0.723311 
346.000000	-0.916409 
346.500000	-0.780936 
347.000000	-0.513553 
347.500000	-0.148475 
348.000000	0.319115  
348.500000	0.704860  
349.000000	1.032100  
349.500000	1.050027  
350.000000	0.976320  
350.500000	0.829145  
351.000000	0.651609  
351.500000	0.486605  
352.000000	0.391224  
352.500000	0.320242  
353.000000	0.265751  
353.500000	0.374193  
354.000000	0.372367  
354.500000	0.348769  
355.000000	0.334179  
355.500000	0.311479  
356.000000	0.252656  
356.500000	0.215105  
357.000000	0.264671  
357.500000	0.273436  
358.000000	0.301568  
358.500000	0.238157  
359.000000	0.128399  
359.500000	0.101401  
360.000000	0.035654  
360.500000	-0.019006 
361.000000	-0.027202 
361.500000	0.142239  
362.000000	0.418876  
362.500000	0.673532  
363.000000	0.915336  
363.500000	1.016587  
364.000000	1.028359  
364.500000	0.903344  
365.000000	0.616840  
365.500000	0.265887  
366.000000	-0.011420 
366.500000	-0.164919 
367.000000	-0.313767 
367.500000	-0.337313 
368.000000	-0.316866 
368.500000	-0.243668 
369.000000	-0.144756 
369.500000	-0.071663 
370.000000	0.007240  
370.500000	0.128089  
371.000000	0.242549  
371.500000	0.281486  
372.000000	0.344563  
372.500000	0.385184  
373.000000	0.350995  
373.500000	0.285475  
374.000000	0.172127  
374.500000	0.079402  
375.000000	0.133167  
375.500000	0.212538  
376.000000	0.249062  
376.500000	0.293354  
377.000000	0.341164  
377.500000	0.296029  
378.000000	0.167533  
378.500000	-0.029000 
379.000000	-0.203346 
379.500000	-0.209941 
380.000000	-0.138006 
380.500000	-0.047579 
381.000000	0.088870  
381.500000	0.309344  
382.000000	0.472792  
382.500000	0.617056  
383.000000	0.592958  
383.500000	0.503670  
384.000000	0.437053  
384.500000	0.445374  
385.000000	0.355614  
385.500000	0.289476  
386.000000	0.274893  
386.500000	0.233664  
387.000000	0.258718  
387.500000	0.241600  
388.000000	0.252345  
388.500000	0.288925  
389.000000	0.403180  
389.500000	0.461096  
390.000000	0.520681  
390.500000	0.532643  
391.000000	0.446286  
391.500000	0.376359  
392.000000	0.300649  
392.500000	0.247721  
393.000000	0.216146  
393.500000	0.204432  
394.000000	0.185866  
394.500000	0.205830  
395.000000	0.262749  
395.500000	0.264828  
396.000000	0.253056  
396.500000	0.257352  
397.000000	0.249542  
397.500000	0.308093  
398.000000	0.328778  
398.500000	0.357886  
399.000000	0.384033  
399.500000	0.450254  
400.000000	0.493443  
400.500000	0.502248  
401.000000	0.510129  
401.500000	0.453515  
402.000000	0.422422  
402.500000	0.375396  
403.000000	0.327033  
403.500000	0.273338  
404.000000	0.237592  
404.500000	0.263061  
405.000000	0.299361  
405.500000	0.363312  
406.000000	0.403020  
406.500000	0.464055  
407.000000	0.508325  
407.500000	0.558491  
408.000000	0.619856  
408.500000	0.641261  
409.000000	0.660918  
409.500000	0.632451  
410.000000	0.564984  
410.500000	0.471784  
411.000000	0.357646  
411.500000	0.234003  
412.000000	0.114501  
412.500000	0.053979  
413.000000	0.033501  
413.500000	0.075515  
414.000000	0.167673  
414.500000	0.282621  
415.000000	0.417778  
415.500000	0.538152  
416.000000	0.642749  
416.500000	0.688541  
417.000000	0.702926  
417.500000	0.706615  
418.000000	0.676690  
418.500000	0.643188  
419.000000	0.600457  
419.500000	0.577562  
420.000000	0.551725  
420.500000	0.549889  
421.000000	0.542398  
421.500000	0.512770  
422.000000	0.481533  
422.500000	0.444042  
423.000000	0.422033  
423.500000	0.397916  
424.000000	0.387832  
424.500000	0.389993  
425.000000	0.418551  
425.500000	0.461469  
426.000000	0.499332  
426.500000	0.531057  
427.000000	0.557367  
427.500000	0.581651  
428.000000	0.583671  
428.500000	0.573993  
429.000000	0.560639  
429.500000	0.571566  
430.000000	0.586480  
430.500000	0.608120  
431.000000	0.622897  
431.500000	0.631514  
432.000000	0.631626  
432.500000	0.613589  
433.000000	0.581337  
433.500000	0.538535  
434.000000	0.520049  
434.500000	0.512374  
435.000000	0.496088  
435.500000	0.478285  
436.000000	0.473029  
436.500000	0.454288  
437.000000	0.419400  
437.500000	0.375777  
438.000000	0.323951  
438.500000	0.302513  
439.000000	0.321429  
439.500000	0.351149  
440.000000	0.390019  
440.500000	0.448193  
441.000000	0.510399  
441.500000	0.559519  
442.000000	0.597583  
442.500000	0.612676  
443.000000	0.615656  
443.500000	0.620589  
444.000000	0.619972  
444.500000	0.595797  

