PE FL                   SPECTRUM    ASCII       PEDS        1.60        
  -1
PP08A2~1
23/10/10
14:42:08.00
23/10/10
14:42:08.00


444.500000
1









LS55
15.00
5.00
5.00
SCAN
1
20
100
100
0
500
0
2
0
1
7
ON
500 450 
1 0 0
#HDR
-1
-1
#GR
NM

0.00002384185791015625
0.0
250.000000
0.500000
390
8
1.845861
-5.000000
#DATA
250.000000	-5.000000 
250.500000	-3.859718 
251.000000	-3.167201 
251.500000	-2.647275 
252.000000	-2.618876 
252.500000	-2.841685 
253.000000	-3.073136 
253.500000	-3.287400 
254.000000	-3.264853 
254.500000	-2.836923 
255.000000	-2.096007 
255.500000	-1.564525 
256.000000	-0.999370 
256.500000	-0.902920 
257.000000	-0.999553 
257.500000	-1.453481 
258.000000	-2.100706 
258.500000	-2.617208 
259.000000	-2.886574 
259.500000	-2.951796 
260.000000	-2.980764 
260.500000	-2.658258 
261.000000	-2.360351 
261.500000	-1.919549 
262.000000	-1.552871 
262.500000	-1.221684 
263.000000	-0.892682 
263.500000	-0.521002 
264.000000	-0.125680 
264.500000	-0.260364 
265.000000	-0.370705 
265.500000	-0.390210 
266.000000	-0.535087 
266.500000	-0.808068 
267.000000	-0.985576 
267.500000	-1.105252 
268.000000	-1.234219 
268.500000	-1.325646 
269.000000	-1.814804 
269.500000	-2.173015 
270.000000	-2.445939 
270.500000	-2.704253 
271.000000	-2.916916 
271.500000	-2.771392 
272.000000	-2.273370 
272.500000	-1.990471 
273.000000	-1.667245 
273.500000	-1.451229 
274.000000	-1.183339 
274.500000	-1.109620 
275.000000	-0.995620 
275.500000	-0.705765 
276.000000	-0.048394 
276.500000	0.888150  
277.000000	1.514407  
277.500000	1.593339  
278.000000	1.567876  
278.500000	1.450162  
279.000000	0.796568  
279.500000	-0.163402 
280.000000	-1.097864 
280.500000	-1.755705 
281.000000	-1.863788 
281.500000	-1.782369 
282.000000	-1.671075 
282.500000	-1.426042 
283.000000	-1.181153 
283.500000	-1.196032 
284.000000	-1.357124 
284.500000	-1.570872 
285.000000	-1.575412 
285.500000	-1.350632 
286.000000	-0.813205 
286.500000	-0.200574 
287.000000	0.362980  
287.500000	0.548134  
288.000000	0.322172  
288.500000	-0.054758 
289.000000	-0.906810 
289.500000	-1.863451 
290.000000	-2.570220 
290.500000	-3.016312 
291.000000	-3.146538 
291.500000	-2.801922 
292.000000	-2.457641 
292.500000	-2.074315 
293.000000	-1.436580 
293.500000	-1.263909 
294.000000	-1.452682 
294.500000	-1.457089 
295.000000	-1.353394 
295.500000	-1.410819 
296.000000	-1.414690 
296.500000	-1.677847 
297.000000	-1.984987 
297.500000	-1.901647 
298.000000	-1.848651 
298.500000	-2.215239 
299.000000	-2.444974 
299.500000	-2.436486 
300.000000	-2.319753 
300.500000	-2.142125 
301.000000	-1.954708 
301.500000	-1.848074 
302.000000	-1.564411 
302.500000	-1.337607 
303.000000	-1.176819 
303.500000	-1.112806 
304.000000	-1.178272 
304.500000	-1.268985 
305.000000	-1.395897 
305.500000	-1.284264 
306.000000	-0.996164 
306.500000	-0.563193 
307.000000	-0.307959 
307.500000	0.218457  
308.000000	0.910992  
308.500000	1.406316  
309.000000	1.552011  
309.500000	1.288428  
310.000000	0.854739  
310.500000	0.487959  
311.000000	0.169466  
311.500000	-0.512033 
312.000000	-1.068307 
312.500000	-1.088227 
313.000000	-0.756221 
313.500000	-0.288466 
314.000000	0.282796  
314.500000	0.772836  
315.000000	1.057838  
315.500000	1.307964  
316.000000	1.335810  
316.500000	1.159161  
317.000000	1.007434  
317.500000	0.881022  
318.000000	0.924980  
318.500000	1.126275  
319.000000	1.322768  
319.500000	1.404527  
320.000000	1.265947  
320.500000	0.975259  
321.000000	0.662458  
321.500000	0.242974  
322.000000	-0.235974 
322.500000	-0.432601 
323.000000	-0.403704 
323.500000	-0.321140 
324.000000	-0.108539 
324.500000	0.023219  
325.000000	0.183586  
325.500000	0.544675  
326.000000	0.751194  
326.500000	0.889205  
327.000000	1.098344  
327.500000	1.249061  
328.000000	1.111863  
328.500000	0.996216  
329.000000	0.737106  
329.500000	0.444752  
330.000000	0.336618  
330.500000	0.208675  
331.000000	0.255278  
331.500000	0.455031  
332.000000	0.710095  
332.500000	1.013063  
333.000000	1.307513  
333.500000	1.422821  
334.000000	1.347597  
334.500000	1.272356  
335.000000	1.165055  
335.500000	1.092020  
336.000000	1.077733  
336.500000	0.946135  
337.000000	0.949691  
337.500000	1.026579  
338.000000	1.105239  
338.500000	1.026486  
339.000000	0.883919  
339.500000	0.885243  
340.000000	0.872707  
340.500000	0.923829  
341.000000	0.781610  
341.500000	0.776225  
342.000000	0.700809  
342.500000	0.670299  
343.000000	0.522413  
343.500000	0.262602  
344.000000	0.182496  
344.500000	0.134996  
345.000000	0.264595  
345.500000	0.403175  
346.000000	0.694219  
346.500000	0.868153  
347.000000	1.060541  
347.500000	1.232230  
348.000000	1.294932  
348.500000	1.355986  
349.000000	1.353317  
349.500000	1.267375  
350.000000	1.162774  
350.500000	1.214164  
351.000000	1.248439  
351.500000	1.334927  
352.000000	1.451935  
352.500000	1.516300  
353.000000	1.550844  
353.500000	1.519883  
354.000000	1.277989  
354.500000	0.944141  
355.000000	0.681403  
355.500000	0.540028  
356.000000	0.542891  
356.500000	0.653041  
357.000000	0.859232  
357.500000	1.100303  
358.000000	1.303211  
358.500000	1.335033  
359.000000	1.202194  
359.500000	0.985050  
360.000000	0.782260  
360.500000	0.628746  
361.000000	0.480469  
361.500000	0.462718  
362.000000	0.534620  
362.500000	0.652175  
363.000000	0.760583  
363.500000	0.896192  
364.000000	1.067565  
364.500000	1.324477  
365.000000	1.581137  
365.500000	1.690165  
366.000000	1.796714  
366.500000	1.845861  
367.000000	1.781873  
367.500000	1.645054  
368.000000	1.514964  
368.500000	1.425792  
369.000000	1.444210  
369.500000	1.501680  
370.000000	1.512862  
370.500000	1.520824  
371.000000	1.540252  
371.500000	1.506883  
372.000000	1.353640  
372.500000	1.178249  
373.000000	1.032488  
373.500000	0.937330  
374.000000	0.919164  
374.500000	0.944492  
375.000000	1.003782  
375.500000	1.163798  
376.000000	1.390205  
376.500000	1.506269  
377.000000	1.585877  
377.500000	1.631646  
378.000000	1.586585  
378.500000	1.545419  
379.000000	1.505018  
379.500000	1.425941  
380.000000	1.402367  
380.500000	1.479954  
381.000000	1.509459  
381.500000	1.501482  
382.000000	1.459889  
382.500000	1.278337  
383.000000	1.051596  
383.500000	0.799753  
384.000000	0.515529  
384.500000	0.346308  
385.000000	0.375078  
385.500000	0.523346  
386.000000	0.722179  
386.500000	0.944605  
387.000000	1.079791  
387.500000	1.212334  
388.000000	1.306133  
388.500000	1.289607  
389.000000	1.200083  
389.500000	1.158956  
390.000000	1.199600  
390.500000	1.227591  
391.000000	1.238324  
391.500000	1.175989  
392.000000	1.164368  
392.500000	1.141946  
393.000000	1.092248  
393.500000	0.982086  
394.000000	0.900462  
394.500000	0.870792  
395.000000	0.862178  
395.500000	0.856544  
396.000000	0.820943  
396.500000	0.848514  
397.000000	0.899838  
397.500000	0.940919  
398.000000	0.966872  
398.500000	1.014751  
399.000000	1.044109  
399.500000	1.071349  
400.000000	1.077493  
400.500000	1.052758  
401.000000	1.051747  
401.500000	1.031872  
402.000000	0.955414  
402.500000	0.863873  
403.000000	0.835921  
403.500000	0.797010  
404.000000	0.793977  
404.500000	0.818966  
405.000000	0.887186  
405.500000	0.972293  
406.000000	1.061831  
406.500000	1.088664  
407.000000	1.069540  
407.500000	1.051743  
408.000000	0.987312  
408.500000	0.916128  
409.000000	0.858814  
409.500000	0.843284  
410.000000	0.835042  
410.500000	0.864422  
411.000000	0.867754  
411.500000	0.848215  
412.000000	0.857291  
412.500000	0.894911  
413.000000	0.949409  
413.500000	1.034167  
414.000000	1.154753  
414.500000	1.222967  
415.000000	1.290332  
415.500000	1.337649  
416.000000	1.332927  
416.500000	1.282724  
417.000000	1.225718  
417.500000	1.164408  
418.000000	1.124670  
418.500000	1.146397  
419.000000	1.149142  
419.500000	1.151011  
420.000000	1.153059  
420.500000	1.133513  
421.000000	1.074725  
421.500000	1.011964  
422.000000	0.975427  
422.500000	0.930629  
423.000000	0.919949  
423.500000	0.915522  
424.000000	0.914146  
424.500000	0.916439  
425.000000	0.932820  
425.500000	0.962759  
426.000000	0.973346  
426.500000	1.002497  
427.000000	0.990195  
427.500000	0.981254  
428.000000	0.969369  
428.500000	0.939542  
429.000000	0.906613  
429.500000	0.873061  
430.000000	0.896367  
430.500000	0.923376  
431.000000	0.957726  
431.500000	0.950700  
432.000000	0.964267  
432.500000	0.973465  
433.000000	0.928914  
433.500000	0.863135  
434.000000	0.779242  
434.500000	0.741785  
435.000000	0.734945  
435.500000	0.751252  
436.000000	0.747830  
436.500000	0.767647  
437.000000	0.800760  
437.500000	0.806746  
438.000000	0.795763  
438.500000	0.764331  
439.000000	0.742200  
439.500000	0.719406  
440.000000	0.728632  
440.500000	0.746087  
441.000000	0.780419  
441.500000	0.823432  
442.000000	0.860433  
442.500000	0.884611  
443.000000	0.897360  
443.500000	0.894940  
444.000000	0.863062  
444.500000	0.842463  

