PE FL                   SPECTRUM    ASCII       PEDS        1.60        
  -1
PPA0B5~1
23/10/10
16:06:20.00
23/10/10
16:06:20.00


444.500000
1









LS55
35.00
5.00
5.00
SCAN
1
20
100
100
0
500
0
2
0
1
7
ON
500 450 
1 0 0
#HDR
-1
-1
#GR
NM

0.00002384185791015625
0.0
250.000000
0.500000
390
8
7.032663
-4.999999
#DATA
250.000000	-4.999999 
250.500000	-3.711949 
251.000000	-2.629774 
251.500000	-1.760311 
252.000000	-1.491947 
252.500000	-1.732464 
253.000000	-2.028648 
253.500000	-2.515522 
254.000000	-2.974108 
254.500000	-3.128765 
255.000000	-2.944631 
255.500000	-2.671820 
256.000000	-2.097217 
256.500000	-1.782404 
257.000000	-1.593348 
257.500000	-1.499705 
258.000000	-2.123275 
258.500000	-2.789122 
259.000000	-3.317483 
259.500000	-3.621009 
260.000000	-3.697970 
260.500000	-3.409449 
261.000000	-3.015594 
261.500000	-2.471908 
262.000000	-1.826713 
262.500000	-1.849672 
263.000000	-2.126750 
263.500000	-2.451910 
264.000000	-2.614016 
264.500000	-3.035083 
265.000000	-3.011985 
265.500000	-2.588806 
266.000000	-1.942918 
266.500000	-1.113277 
267.000000	-0.731677 
267.500000	-0.487211 
268.000000	-0.509780 
268.500000	-0.659584 
269.000000	-1.500439 
269.500000	-2.287471 
270.000000	-3.061280 
270.500000	-3.604226 
271.000000	-3.924811 
271.500000	-4.189937 
272.000000	-4.211941 
272.500000	-4.083323 
273.000000	-3.807940 
273.500000	-3.906438 
274.000000	-3.944002 
274.500000	-4.050454 
275.000000	-4.005444 
275.500000	-3.875307 
276.000000	-3.821791 
276.500000	-3.542566 
277.000000	-2.937091 
277.500000	-2.279042 
278.000000	-1.679589 
278.500000	-1.175950 
279.000000	-0.844124 
279.500000	-0.792801 
280.000000	-1.071518 
280.500000	-1.746703 
281.000000	-2.473596 
281.500000	-3.051884 
282.000000	-3.173264 
282.500000	-2.978510 
283.000000	-2.722853 
283.500000	-2.061625 
284.000000	-1.099756 
284.500000	-0.101581 
285.000000	0.555958  
285.500000	0.775995  
286.000000	0.491353  
286.500000	0.137153  
287.000000	-0.207289 
287.500000	-0.882362 
288.000000	-1.697333 
288.500000	-2.150361 
289.000000	-2.322323 
289.500000	-2.212627 
290.000000	-1.988654 
290.500000	-1.957656 
291.000000	-1.816488 
291.500000	-1.360181 
292.000000	-1.080306 
292.500000	-1.148352 
293.000000	-1.172302 
293.500000	-1.295862 
294.000000	-1.202776 
294.500000	-1.001001 
295.000000	-1.062670 
295.500000	-1.276329 
296.000000	-1.203000 
296.500000	-0.955430 
297.000000	-0.759346 
297.500000	-0.453670 
298.000000	-0.540440 
298.500000	-0.725042 
299.000000	-0.712883 
299.500000	-0.851511 
300.000000	-1.142344 
300.500000	-1.267157 
301.000000	-1.038615 
301.500000	-0.598519 
302.000000	0.119188  
302.500000	0.751151  
303.000000	1.154121  
303.500000	1.453064  
304.000000	1.703555  
304.500000	1.432227  
305.000000	1.001949  
305.500000	0.813561  
306.000000	0.674023  
306.500000	0.815896  
307.000000	1.361962  
307.500000	2.010233  
308.000000	2.503586  
308.500000	3.188236  
309.000000	3.497346  
309.500000	3.645427  
310.000000	3.583138  
310.500000	3.343956  
311.000000	2.943260  
311.500000	2.702424  
312.000000	2.870449  
312.500000	3.261099  
313.000000	3.965693  
313.500000	4.521909  
314.000000	5.243004  
314.500000	5.793503  
315.000000	6.301047  
315.500000	6.559041  
316.000000	6.556419  
316.500000	6.563244  
317.000000	6.632335  
317.500000	6.599369  
318.000000	6.436591  
318.500000	6.527173  
319.000000	6.581942  
319.500000	6.670591  
320.000000	6.805419  
320.500000	6.898861  
321.000000	6.981620  
321.500000	7.032663  
322.000000	6.944814  
322.500000	6.721408  
323.000000	6.536589  
323.500000	6.166250  
324.000000	5.596822  
324.500000	4.919182  
325.000000	4.299383  
325.500000	3.992736  
326.000000	3.801990  
326.500000	3.682973  
327.000000	3.641755  
327.500000	3.865640  
328.000000	4.248120  
328.500000	4.652202  
329.000000	4.866538  
329.500000	4.860843  
330.000000	4.947064  
330.500000	5.074913  
331.000000	5.155857  
331.500000	5.177801  
332.000000	5.241403  
332.500000	5.238361  
333.000000	5.325676  
333.500000	5.248732  
334.000000	4.967311  
334.500000	4.632182  
335.000000	4.449292  
335.500000	4.303427  
336.000000	4.238110  
336.500000	4.238075  
337.000000	4.351248  
337.500000	4.629855  
338.000000	4.916007  
338.500000	5.107915  
339.000000	5.125138  
339.500000	5.096166  
340.000000	4.888326  
340.500000	4.625644  
341.000000	4.311562  
341.500000	3.972495  
342.000000	3.731662  
342.500000	3.589084  
343.000000	3.600582  
343.500000	3.682352  
344.000000	3.805803  
344.500000	4.053759  
345.000000	4.411377  
345.500000	4.775780  
346.000000	5.014415  
346.500000	5.200499  
347.000000	5.247414  
347.500000	5.119304  
348.000000	4.860774  
348.500000	4.380977  
349.000000	4.016067  
349.500000	3.665308  
350.000000	3.473531  
350.500000	3.411729  
351.000000	3.554253  
351.500000	3.765111  
352.000000	3.937517  
352.500000	4.123307  
353.000000	4.164067  
353.500000	4.233326  
354.000000	4.237074  
354.500000	4.264365  
355.000000	4.273693  
355.500000	4.428600  
356.000000	4.679564  
356.500000	4.799750  
357.000000	4.900987  
357.500000	4.938975  
358.000000	4.891759  
358.500000	4.799290  
359.000000	4.700624  
359.500000	4.567117  
360.000000	4.492657  
360.500000	4.550425  
361.000000	4.597027  
361.500000	4.730751  
362.000000	4.835055  
362.500000	4.861412  
363.000000	4.903220  
363.500000	4.937123  
364.000000	4.914385  
364.500000	4.795347  
365.000000	4.683024  
365.500000	4.646291  
366.000000	4.732132  
366.500000	4.773835  
367.000000	4.819234  
367.500000	4.937130  
368.000000	5.057187  
368.500000	5.178230  
369.000000	5.193404  
369.500000	5.071153  
370.000000	4.953380  
370.500000	4.943234  
371.000000	4.883994  
371.500000	4.862220  
372.000000	4.925697  
372.500000	5.014452  
373.000000	5.071911  
373.500000	5.150760  
374.000000	5.144503  
374.500000	5.126286  
375.000000	5.149162  
375.500000	5.131526  
376.000000	5.149011  
376.500000	5.196669  
377.000000	5.250791  
377.500000	5.178359  
378.000000	5.106094  
378.500000	5.020299  
379.000000	4.969329  
379.500000	4.923650  
380.000000	4.882068  
380.500000	4.891702  
381.000000	4.969085  
381.500000	5.102516  
382.000000	5.144254  
382.500000	5.143298  
383.000000	5.068994  
383.500000	5.045832  
384.000000	5.047631  
384.500000	5.084409  
385.000000	5.080565  
385.500000	5.051616  
386.000000	5.036362  
386.500000	4.966786  
387.000000	4.859628  
387.500000	4.701741  
388.000000	4.580095  
388.500000	4.480146  
389.000000	4.443986  
389.500000	4.368187  
390.000000	4.293763  
390.500000	4.225715  
391.000000	4.156709  
391.500000	4.098554  
392.000000	4.053481  
392.500000	4.036428  
393.000000	4.069997  
393.500000	4.154153  
394.000000	4.232307  
394.500000	4.283809  
395.000000	4.287203  
395.500000	4.245836  
396.000000	4.133678  
396.500000	4.013473  
397.000000	3.910734  
397.500000	3.817093  
398.000000	3.733287  
398.500000	3.671890  
399.000000	3.613814  
399.500000	3.568612  
400.000000	3.546328  
400.500000	3.538428  
401.000000	3.569101  
401.500000	3.618162  
402.000000	3.648971  
402.500000	3.638057  
403.000000	3.616750  
403.500000	3.563160  
404.000000	3.493619  
404.500000	3.416204  
405.000000	3.320590  
405.500000	3.259704  
406.000000	3.244654  
406.500000	3.254141  
407.000000	3.239422  
407.500000	3.242372  
408.000000	3.241122  
408.500000	3.251821  
409.000000	3.252766  
409.500000	3.214010  
410.000000	3.198903  
410.500000	3.175091  
411.000000	3.146688  
411.500000	3.085157  
412.000000	3.007155  
412.500000	2.947508  
413.000000	2.936392  
413.500000	2.979301  
414.000000	3.024992  
414.500000	3.094786  
415.000000	3.138161  
415.500000	3.148054  
416.000000	3.110362  
416.500000	3.016036  
417.000000	2.880400  
417.500000	2.744326  
418.000000	2.650534  
418.500000	2.587853  
419.000000	2.599925  
419.500000	2.617930  
420.000000	2.618379  
420.500000	2.622439  
421.000000	2.610620  
421.500000	2.558018  
422.000000	2.488671  
422.500000	2.431742  
423.000000	2.392303  
423.500000	2.382416  
424.000000	2.373845  
424.500000	2.352407  
425.000000	2.325411  
425.500000	2.295767  
426.000000	2.232582  
426.500000	2.164063  
427.000000	2.111417  
427.500000	2.082506  
428.000000	2.077779  
428.500000	2.092706  
429.000000	2.129378  
429.500000	2.164371  
430.000000	2.198403  
430.500000	2.207007  
431.000000	2.192149  
431.500000	2.163553  
432.000000	2.136954  
432.500000	2.095651  
433.000000	2.050118  
433.500000	2.027509  
434.000000	2.003319  
434.500000	1.986570  
435.000000	1.982604  
435.500000	1.980696  
436.000000	1.988754  
436.500000	2.014982  
437.000000	2.048401  
437.500000	2.080297  
438.000000	2.114041  
438.500000	2.123027  
439.000000	2.116514  
439.500000	2.087305  
440.000000	2.049432  
440.500000	2.011567  
441.000000	1.978346  
441.500000	1.961519  
442.000000	1.975207  
442.500000	1.990683  
443.000000	1.987487  
443.500000	2.002230  
444.000000	2.012142  
444.500000	2.032515  

