PE FL                   SPECTRUM    ASCII       PEDS        1.60        
  -1
PPA085~1
23/10/10
16:04:19.00
23/10/10
16:04:19.00


444.500000
1









LS55
20.00
5.00
5.00
SCAN
1
20
100
100
0
500
0
2
0
1
7
ON
500 450 
1 0 0
#HDR
-1
-1
#GR
NM

0.00002384185791015625
0.0
250.000000
0.500000
390
8
4.287270
-4.999999
#DATA
250.000000	-4.999999 
250.500000	-4.294255 
251.000000	-3.406614 
251.500000	-3.097064 
252.000000	-2.902505 
252.500000	-2.868904 
253.000000	-2.944929 
253.500000	-3.271104 
254.000000	-3.337923 
254.500000	-3.392347 
255.000000	-3.140004 
255.500000	-2.591681 
256.000000	-2.403081 
256.500000	-2.362029 
257.000000	-2.417065 
257.500000	-2.252987 
258.000000	-2.173706 
258.500000	-2.210678 
259.000000	-2.272381 
259.500000	-1.961135 
260.000000	-1.621082 
260.500000	-1.129607 
261.000000	-0.611434 
261.500000	-0.224276 
262.000000	0.150305  
262.500000	0.485957  
263.000000	0.377047  
263.500000	-0.012972 
264.000000	-0.413550 
264.500000	-0.981575 
265.000000	-1.359357 
265.500000	-1.531267 
266.000000	-1.879105 
266.500000	-2.176217 
267.000000	-2.007164 
267.500000	-1.637102 
268.000000	-1.322774 
268.500000	-1.036710 
269.000000	-0.998863 
269.500000	-1.048665 
270.000000	-1.252503 
270.500000	-1.639927 
271.000000	-2.236066 
271.500000	-2.557272 
272.000000	-2.651017 
272.500000	-2.532293 
273.000000	-2.380838 
273.500000	-2.127979 
274.000000	-1.909216 
274.500000	-1.960174 
275.000000	-2.039046 
275.500000	-2.400136 
276.000000	-2.565184 
276.500000	-2.392983 
277.000000	-1.900220 
277.500000	-1.065579 
278.000000	-0.079381 
278.500000	0.658849  
279.000000	0.747634  
279.500000	0.608725  
280.000000	-0.199658 
280.500000	-1.329115 
281.000000	-2.561444 
281.500000	-3.670559 
282.000000	-4.434837 
282.500000	-4.652074 
283.000000	-4.580444 
283.500000	-4.352148 
284.000000	-3.959885 
284.500000	-3.415734 
285.000000	-3.012748 
285.500000	-2.547577 
286.000000	-2.123144 
286.500000	-1.693835 
287.000000	-1.410198 
287.500000	-1.097960 
288.000000	-0.913263 
288.500000	-1.090858 
289.000000	-1.265279 
289.500000	-1.688853 
290.000000	-2.117622 
290.500000	-2.395350 
291.000000	-2.318023 
291.500000	-2.198200 
292.000000	-1.773742 
292.500000	-1.393162 
293.000000	-0.862625 
293.500000	-0.222796 
294.000000	0.016844  
294.500000	-0.079450 
295.000000	-0.180227 
295.500000	-0.097328 
296.000000	-0.075391 
296.500000	-0.147938 
297.000000	-0.880945 
297.500000	-1.173670 
298.000000	-1.211364 
298.500000	-1.320331 
299.000000	-1.778233 
299.500000	-2.077898 
300.000000	-2.203534 
300.500000	-2.078457 
301.000000	-1.642077 
301.500000	-1.770071 
302.000000	-1.630308 
302.500000	-1.223810 
303.000000	-0.797577 
303.500000	-0.570430 
304.000000	-0.193558 
304.500000	0.292946  
305.000000	0.617641  
305.500000	1.172694  
306.000000	1.491467  
306.500000	1.688425  
307.000000	1.744663  
307.500000	1.503749  
308.000000	1.152167  
308.500000	0.773340  
309.000000	0.498652  
309.500000	0.151739  
310.000000	0.183853  
310.500000	0.674531  
311.000000	1.420182  
311.500000	2.215945  
312.000000	2.777399  
312.500000	3.230200  
313.000000	3.447562  
313.500000	3.446341  
314.000000	3.231714  
314.500000	3.142655  
315.000000	3.441391  
315.500000	3.830205  
316.000000	4.060375  
316.500000	4.093713  
317.000000	4.141593  
317.500000	4.287270  
318.000000	4.061256  
318.500000	3.489052  
319.000000	2.843763  
319.500000	2.442001  
320.000000	2.199623  
320.500000	1.833578  
321.000000	1.407499  
321.500000	1.006487  
322.000000	1.059757  
322.500000	1.143329  
323.000000	1.230580  
323.500000	1.312887  
324.000000	1.620561  
324.500000	2.083487  
325.000000	2.491741  
325.500000	2.709721  
326.000000	2.724175  
326.500000	2.858840  
327.000000	2.775415  
327.500000	2.652448  
328.000000	2.637259  
328.500000	2.658329  
329.000000	2.600641  
329.500000	2.501563  
330.000000	2.432498  
330.500000	2.346938  
331.000000	2.160265  
331.500000	1.653505  
332.000000	1.127027  
332.500000	0.813045  
333.000000	0.767327  
333.500000	0.696406  
334.000000	0.765285  
334.500000	0.998991  
335.000000	1.354388  
335.500000	1.576765  
336.000000	1.533771  
336.500000	1.307682  
337.000000	1.152893  
337.500000	1.148653  
338.000000	1.108010  
338.500000	1.204157  
339.000000	1.472705  
339.500000	1.976642  
340.000000	2.412495  
340.500000	2.683029  
341.000000	2.806015  
341.500000	2.772089  
342.000000	2.644530  
342.500000	2.395863  
343.000000	2.103860  
343.500000	1.863672  
344.000000	1.779321  
344.500000	1.697833  
345.000000	1.733599  
345.500000	1.785730  
346.000000	1.839818  
346.500000	1.845621  
347.000000	1.935616  
347.500000	1.971159  
348.000000	1.979885  
348.500000	2.091453  
349.000000	2.169802  
349.500000	2.361249  
350.000000	2.374501  
350.500000	2.322328  
351.000000	2.179807  
351.500000	2.055674  
352.000000	1.786019  
352.500000	1.434462  
353.000000	1.118501  
353.500000	0.910882  
354.000000	1.017669  
354.500000	1.157185  
355.000000	1.432424  
355.500000	1.849853  
356.000000	2.363597  
356.500000	2.778984  
357.000000	3.007223  
357.500000	3.112823  
358.000000	3.128590  
358.500000	3.201847  
359.000000	3.143695  
359.500000	3.123681  
360.000000	3.216575  
360.500000	3.303436  
361.000000	3.279491  
361.500000	3.091379  
362.000000	2.921993  
362.500000	2.754741  
363.000000	2.653385  
363.500000	2.463410  
364.000000	2.357806  
364.500000	2.439081  
365.000000	2.578057  
365.500000	2.699120  
366.000000	2.662216  
366.500000	2.653471  
367.000000	2.638776  
367.500000	2.731040  
368.000000	2.786893  
368.500000	2.888842  
369.000000	3.043249  
369.500000	3.231975  
370.000000	3.363651  
370.500000	3.361259  
371.000000	3.252323  
371.500000	2.999915  
372.000000	2.726611  
372.500000	2.476175  
373.000000	2.341450  
373.500000	2.280935  
374.000000	2.348911  
374.500000	2.423529  
375.000000	2.613751  
375.500000	2.829742  
376.000000	2.971358  
376.500000	2.988218  
377.000000	2.879365  
377.500000	2.802768  
378.000000	2.748252  
378.500000	2.794395  
379.000000	2.795623  
379.500000	2.917784  
380.000000	3.074722  
380.500000	3.241905  
381.000000	3.368395  
381.500000	3.367149  
382.000000	3.318609  
382.500000	3.217366  
383.000000	3.078690  
383.500000	2.887710  
384.000000	2.732250  
384.500000	2.608755  
385.000000	2.558690  
385.500000	2.538220  
386.000000	2.541711  
386.500000	2.631638  
387.000000	2.756147  
387.500000	2.865086  
388.000000	2.937621  
388.500000	2.950777  
389.000000	2.944870  
389.500000	2.901297  
390.000000	2.812585  
390.500000	2.705655  
391.000000	2.641921  
391.500000	2.606540  
392.000000	2.583540  
392.500000	2.575044  
393.000000	2.504493  
393.500000	2.498374  
394.000000	2.507066  
394.500000	2.531521  
395.000000	2.601728  
395.500000	2.681686  
396.000000	2.771318  
396.500000	2.881565  
397.000000	2.985866  
397.500000	2.975172  
398.000000	2.982679  
398.500000	2.959553  
399.000000	2.896446  
399.500000	2.852723  
400.000000	2.846402  
400.500000	2.858255  
401.000000	2.890602  
401.500000	2.948498  
402.000000	2.960261  
402.500000	2.953940  
403.000000	2.957177  
403.500000	2.914649  
404.000000	2.833834  
404.500000	2.751293  
405.000000	2.687225  
405.500000	2.617318  
406.000000	2.593005  
406.500000	2.590656  
407.000000	2.561220  
407.500000	2.571938  
408.000000	2.564585  
408.500000	2.537254  
409.000000	2.513188  
409.500000	2.491698  
410.000000	2.483424  
410.500000	2.517020  
411.000000	2.593166  
411.500000	2.624594  
412.000000	2.694560  
412.500000	2.743342  
413.000000	2.780564  
413.500000	2.799756  
414.000000	2.763884  
414.500000	2.678152  
415.000000	2.593775  
415.500000	2.534238  
416.000000	2.440016  
416.500000	2.395324  
417.000000	2.350812  
417.500000	2.302458  
418.000000	2.290132  
418.500000	2.280640  
419.000000	2.236109  
419.500000	2.178680  
420.000000	2.156886  
420.500000	2.125371  
421.000000	2.125115  
421.500000	2.137194  
422.000000	2.130385  
422.500000	2.128298  
423.000000	2.150340  
423.500000	2.144792  
424.000000	2.109624  
424.500000	2.079240  
425.000000	2.054955  
425.500000	2.044607  
426.000000	2.031536  
426.500000	2.003092  
427.000000	1.965672  
427.500000	1.939707  
428.000000	1.905452  
428.500000	1.867123  
429.000000	1.840576  
429.500000	1.837447  
430.000000	1.841462  
430.500000	1.847056  
431.000000	1.836477  
431.500000	1.804521  
432.000000	1.778046  
432.500000	1.735088  
433.000000	1.677667  
433.500000	1.626493  
434.000000	1.599087  
434.500000	1.573040  
435.000000	1.554387  
435.500000	1.551627  
436.000000	1.550582  
436.500000	1.575875  
437.000000	1.599520  
437.500000	1.602201  
438.000000	1.597503  
438.500000	1.602221  
439.000000	1.592355  
439.500000	1.572646  
440.000000	1.548965  
440.500000	1.523740  
441.000000	1.524759  
441.500000	1.529583  
442.000000	1.545607  
442.500000	1.561747  
443.000000	1.579803  
443.500000	1.596138  
444.000000	1.611319  
444.500000	1.593980  

