PE FL                   SPECTRUM    ASCII       PEDS        1.60        
  -1
PPA0D5~1
23/10/10
16:07:41.00
23/10/10
16:07:41.00


444.500000
1









LS55
45.00
5.00
5.00
SCAN
1
20
100
100
0
500
0
2
0
1
7
ON
500 450 
1 0 0
#HDR
-1
-1
#GR
NM

0.00002384185791015625
0.0
250.000000
0.500000
390
8
8.516644
-4.999999
#DATA
250.000000	-4.999999 
250.500000	-4.048280 
251.000000	-2.978521 
251.500000	-2.052974 
252.000000	-1.672123 
252.500000	-1.845053 
253.000000	-1.871671 
253.500000	-1.884710 
254.000000	-2.057075 
254.500000	-2.393680 
255.000000	-2.574801 
255.500000	-2.686850 
256.000000	-2.782460 
256.500000	-2.902871 
257.000000	-3.062536 
257.500000	-3.071873 
258.000000	-2.620516 
258.500000	-2.068797 
259.000000	-1.510916 
259.500000	-0.841602 
260.000000	-0.441934 
260.500000	-0.524447 
261.000000	-0.834837 
261.500000	-1.245902 
262.000000	-1.863588 
262.500000	-2.390428 
263.000000	-2.669874 
263.500000	-2.469957 
264.000000	-1.812671 
264.500000	-1.389369 
265.000000	-1.213392 
265.500000	-0.829468 
266.000000	-0.489959 
266.500000	-0.384679 
267.000000	-0.629100 
267.500000	-0.890830 
268.000000	-1.039744 
268.500000	-1.085290 
269.000000	-1.577766 
269.500000	-2.200846 
270.000000	-2.708958 
270.500000	-3.478613 
271.000000	-3.816004 
271.500000	-3.998041 
272.000000	-3.904507 
272.500000	-3.642188 
273.000000	-3.285118 
273.500000	-3.090548 
274.000000	-2.584958 
274.500000	-1.783180 
275.000000	-1.619760 
275.500000	-1.465965 
276.000000	-1.140859 
276.500000	-0.799614 
277.000000	-0.621124 
277.500000	-0.778264 
278.000000	-1.123785 
278.500000	-1.215923 
279.000000	-0.884604 
279.500000	-0.740979 
280.000000	-0.607810 
280.500000	-0.389342 
281.000000	-0.206208 
281.500000	-0.196168 
282.000000	-0.502460 
282.500000	-1.080611 
283.000000	-1.726218 
283.500000	-2.172708 
284.000000	-2.495431 
284.500000	-2.728370 
285.000000	-2.651413 
285.500000	-2.400299 
286.000000	-2.062598 
286.500000	-1.642910 
287.000000	-1.035951 
287.500000	-0.572139 
288.000000	-0.006909 
288.500000	0.560172  
289.000000	0.885636  
289.500000	1.040356  
290.000000	0.849709  
290.500000	0.066424  
291.000000	-0.703420 
291.500000	-1.151993 
292.000000	-1.756294 
292.500000	-1.937521 
293.000000	-1.537020 
293.500000	-0.775329 
294.000000	0.400831  
294.500000	1.726040  
295.000000	2.406908  
295.500000	2.881315  
296.000000	3.070133  
296.500000	2.591919  
297.000000	1.550762  
297.500000	0.363220  
298.000000	-0.717940 
298.500000	-1.539182 
299.000000	-1.657586 
299.500000	-1.451697 
300.000000	-0.811197 
300.500000	0.031516  
301.000000	0.917755  
301.500000	1.593756  
302.000000	1.939514  
302.500000	2.347351  
303.000000	2.353138  
303.500000	2.231857  
304.000000	2.214590  
304.500000	2.373567  
305.000000	2.584676  
305.500000	2.821501  
306.000000	3.034962  
306.500000	3.121412  
307.000000	3.663982  
307.500000	4.021151  
308.000000	4.307991  
308.500000	4.765348  
309.000000	5.375585  
309.500000	6.366747  
310.000000	7.296423  
310.500000	8.076050  
311.000000	8.328331  
311.500000	8.516644  
312.000000	8.345606  
312.500000	7.767298  
313.000000	6.922478  
313.500000	6.008897  
314.000000	5.483151  
314.500000	5.186373  
315.000000	5.410805  
315.500000	5.838507  
316.000000	6.438765  
316.500000	7.007257  
317.000000	7.537507  
317.500000	7.870134  
318.000000	7.861410  
318.500000	7.694883  
319.000000	7.368785  
319.500000	7.249845  
320.000000	7.203067  
320.500000	7.053357  
321.000000	6.810449  
321.500000	6.651856  
322.000000	6.561232  
322.500000	6.514902  
323.000000	6.469245  
323.500000	6.327396  
324.000000	6.261427  
324.500000	6.185663  
325.000000	6.121862  
325.500000	5.874507  
326.000000	5.575778  
326.500000	5.312927  
327.000000	4.995379  
327.500000	4.692118  
328.000000	4.492950  
328.500000	4.378616  
329.000000	4.175416  
329.500000	4.083700  
330.000000	4.064839  
330.500000	4.101882  
331.000000	4.258471  
331.500000	4.358955  
332.000000	4.506385  
332.500000	4.577350  
333.000000	4.720181  
333.500000	4.673105  
334.000000	4.589567  
334.500000	4.441723  
335.000000	4.321182  
335.500000	4.301492  
336.000000	4.212626  
336.500000	4.342456  
337.000000	4.502972  
337.500000	4.780769  
338.000000	5.020826  
338.500000	5.231043  
339.000000	5.410114  
339.500000	5.615981  
340.000000	5.729098  
340.500000	5.557652  
341.000000	5.491955  
341.500000	5.301457  
342.000000	5.226089  
342.500000	5.139457  
343.000000	5.056746  
343.500000	5.123902  
344.000000	5.454049  
344.500000	5.971405  
345.000000	6.271726  
345.500000	6.447071  
346.000000	6.406194  
346.500000	6.422804  
347.000000	6.264922  
347.500000	5.859996  
348.000000	5.367593  
348.500000	4.996027  
349.000000	4.954437  
349.500000	4.981671  
350.000000	5.092730  
350.500000	5.141185  
351.000000	5.503235  
351.500000	5.901031  
352.000000	6.152893  
352.500000	6.292220  
353.000000	6.382202  
353.500000	6.555685  
354.000000	6.740887  
354.500000	6.840345  
355.000000	6.735603  
355.500000	6.704556  
356.000000	6.729421  
356.500000	6.693923  
357.000000	6.703433  
357.500000	6.681813  
358.000000	6.652793  
358.500000	6.683689  
359.000000	6.763742  
359.500000	6.806848  
360.000000	6.870010  
360.500000	6.950717  
361.000000	6.981547  
361.500000	7.083564  
362.000000	7.118471  
362.500000	7.044012  
363.000000	7.017914  
363.500000	7.028718  
364.000000	7.061667  
364.500000	7.103854  
365.000000	7.091537  
365.500000	7.085009  
366.000000	7.139798  
366.500000	7.145828  
367.000000	7.067049  
367.500000	6.985633  
368.000000	6.899083  
368.500000	6.813400  
369.000000	6.720499  
369.500000	6.587895  
370.000000	6.530183  
370.500000	6.513055  
371.000000	6.466562  
371.500000	6.373360  
372.000000	6.318520  
372.500000	6.303800  
373.000000	6.322043  
373.500000	6.395448  
374.000000	6.486955  
374.500000	6.627690  
375.000000	6.817937  
375.500000	6.972267  
376.000000	7.032931  
376.500000	7.026117  
377.000000	6.927750  
377.500000	6.752365  
378.000000	6.514122  
378.500000	6.283845  
379.000000	6.058479  
379.500000	5.862840  
380.000000	5.746988  
380.500000	5.642881  
381.000000	5.549307  
381.500000	5.467994  
382.000000	5.399013  
382.500000	5.325937  
383.000000	5.329271  
383.500000	5.370177  
384.000000	5.401818  
384.500000	5.482365  
385.000000	5.545208  
385.500000	5.580416  
386.000000	5.529425  
386.500000	5.424497  
387.000000	5.229853  
387.500000	5.057097  
388.000000	4.908146  
388.500000	4.807328  
389.000000	4.774713  
389.500000	4.767531  
390.000000	4.821562  
390.500000	4.883296  
391.000000	4.935710  
391.500000	4.934430  
392.000000	4.929814  
392.500000	4.917799  
393.000000	4.947954  
393.500000	4.978592  
394.000000	4.940801  
394.500000	4.898627  
395.000000	4.850462  
395.500000	4.758170  
396.000000	4.627669  
396.500000	4.473841  
397.000000	4.311545  
397.500000	4.201723  
398.000000	4.182613  
398.500000	4.164387  
399.000000	4.159167  
399.500000	4.183680  
400.000000	4.197576  
400.500000	4.210871  
401.000000	4.197892  
401.500000	4.153488  
402.000000	4.049368  
402.500000	3.960320  
403.000000	3.832131  
403.500000	3.664548  
404.000000	3.516105  
404.500000	3.414832  
405.000000	3.382861  
405.500000	3.415014  
406.000000	3.520441  
406.500000	3.627826  
407.000000	3.759951  
407.500000	3.869147  
408.000000	3.923496  
408.500000	3.917798  
409.000000	3.869935  
409.500000	3.789672  
410.000000	3.731747  
410.500000	3.711188  
411.000000	3.712442  
411.500000	3.750791  
412.000000	3.791705  
412.500000	3.819793  
413.000000	3.785856  
413.500000	3.716353  
414.000000	3.604713  
414.500000	3.496864  
415.000000	3.439912  
415.500000	3.408133  
416.000000	3.429358  
416.500000	3.479891  
417.000000	3.572036  
417.500000	3.636179  
418.000000	3.661442  
418.500000	3.627725  
419.000000	3.541347  
419.500000	3.437543  
420.000000	3.302162  
420.500000	3.155099  
421.000000	2.995778  
421.500000	2.882516  
422.000000	2.749171  
422.500000	2.656944  
423.000000	2.617929  
423.500000	2.612877  
424.000000	2.644194  
424.500000	2.699189  
425.000000	2.766686  
425.500000	2.804265  
426.000000	2.831446  
426.500000	2.774560  
427.000000	2.703896  
427.500000	2.623345  
428.000000	2.576662  
428.500000	2.524734  
429.000000	2.490511  
429.500000	2.493328  
430.000000	2.496185  
430.500000	2.537910  
431.000000	2.519979  
431.500000	2.508147  
432.000000	2.487985  
432.500000	2.489916  
433.000000	2.471217  
433.500000	2.431762  
434.000000	2.419961  
434.500000	2.422027  
435.000000	2.405065  
435.500000	2.382339  
436.000000	2.377064  
436.500000	2.382493  
437.000000	2.413792  
437.500000	2.439877  
438.000000	2.442716  
438.500000	2.469687  
439.000000	2.545820  
439.500000	2.589115  
440.000000	2.615265  
440.500000	2.633081  
441.000000	2.660423  
441.500000	2.694613  
442.000000	2.732960  
442.500000	2.722694  
443.000000	2.688844  
443.500000	2.683073  
444.000000	2.645473  
444.500000	2.617382  

