PE FL                   SPECTRUM    ASCII       PEDS        1.60        
  -1
PPA04D~1
23/10/10
16:08:21.00
23/10/10
16:08:21.00


444.500000
1









LS55
50.00
5.00
5.00
SCAN
1
20
100
100
0
500
0
2
0
1
7
ON
500 450 
1 0 0
#HDR
-1
-1
#GR
NM

0.00002384185791015625
0.0
250.000000
0.500000
390
8
7.982617
-4.008233
#DATA
250.000000	0.000000  
250.500000	0.198136  
251.000000	-0.128541 
251.500000	-0.255901 
252.000000	-0.307166 
252.500000	-0.571204 
253.000000	-0.857166 
253.500000	-1.133006 
254.000000	-1.476635 
254.500000	-1.571375 
255.000000	-1.624562 
255.500000	-2.109842 
256.000000	-2.370338 
256.500000	-2.315937 
257.000000	-2.311892 
257.500000	-2.324183 
258.000000	-2.240535 
258.500000	-2.250888 
259.000000	-2.490148 
259.500000	-2.473960 
260.000000	-2.498087 
260.500000	-2.398515 
261.000000	-2.152149 
261.500000	-1.959338 
262.000000	-1.592513 
262.500000	-0.983790 
263.000000	-0.553361 
263.500000	-0.857323 
264.000000	-1.319797 
264.500000	-2.052618 
265.000000	-2.644431 
265.500000	-3.166383 
266.000000	-3.743078 
266.500000	-4.008233 
267.000000	-3.854371 
267.500000	-3.517208 
268.000000	-3.292138 
268.500000	-3.048959 
269.000000	-3.174916 
269.500000	-3.360677 
270.000000	-3.378491 
270.500000	-3.277627 
271.000000	-3.178603 
271.500000	-2.806474 
272.000000	-2.497879 
272.500000	-1.938014 
273.000000	-1.463059 
273.500000	-1.300497 
274.000000	-1.450406 
274.500000	-1.556607 
275.000000	-1.639680 
275.500000	-2.064734 
276.000000	-2.136997 
276.500000	-2.234368 
277.000000	-2.079447 
277.500000	-1.879073 
278.000000	-1.703631 
278.500000	-1.591682 
279.000000	-1.433586 
279.500000	-1.161129 
280.000000	-1.332102 
280.500000	-1.491868 
281.000000	-1.901632 
281.500000	-2.345675 
282.000000	-2.568965 
282.500000	-2.776975 
283.000000	-2.698642 
283.500000	-2.437779 
284.000000	-1.893861 
284.500000	-1.344830 
285.000000	-0.835183 
285.500000	-0.804783 
286.000000	-1.290678 
286.500000	-1.798234 
287.000000	-2.233705 
287.500000	-2.526182 
288.000000	-2.666232 
288.500000	-2.626958 
289.000000	-2.168088 
289.500000	-1.245681 
290.000000	-0.458935 
290.500000	-0.105991 
291.000000	-0.098424 
291.500000	-0.224689 
292.000000	-0.488699 
292.500000	-0.763849 
293.000000	-1.349438 
293.500000	-1.842444 
294.000000	-1.996471 
294.500000	-1.682254 
295.000000	-1.040927 
295.500000	-0.412097 
296.000000	0.205121  
296.500000	0.819836  
297.000000	1.487792  
297.500000	1.701351  
298.000000	1.785359  
298.500000	1.622895  
299.000000	1.594504  
299.500000	1.844218  
300.000000	2.369456  
300.500000	2.966479  
301.000000	3.526399  
301.500000	3.959221  
302.000000	3.992619  
302.500000	3.895606  
303.000000	3.531373  
303.500000	3.140188  
304.000000	2.847315  
304.500000	3.024027  
305.000000	3.320379  
305.500000	3.743015  
306.000000	4.222836  
306.500000	4.607993  
307.000000	4.823586  
307.500000	4.827348  
308.000000	4.807984  
308.500000	4.717273  
309.000000	4.866461  
309.500000	4.858191  
310.000000	4.823330  
310.500000	4.859587  
311.000000	5.034116  
311.500000	5.238458  
312.000000	5.426666  
312.500000	5.664494  
313.000000	6.028798  
313.500000	6.602947  
314.000000	6.905392  
314.500000	7.073024  
315.000000	7.051731  
315.500000	6.812205  
316.000000	6.458146  
316.500000	6.145889  
317.000000	5.886749  
317.500000	5.884302  
318.000000	6.009392  
318.500000	6.039045  
319.000000	6.199108  
319.500000	6.453013  
320.000000	6.596065  
320.500000	6.498901  
321.000000	6.402939  
321.500000	6.304274  
322.000000	6.375561  
322.500000	6.325383  
323.000000	5.992013  
323.500000	5.559983  
324.000000	5.240250  
324.500000	4.895415  
325.000000	4.411056  
325.500000	4.069794  
326.000000	3.901874  
326.500000	4.189183  
327.000000	4.535283  
327.500000	4.996931  
328.000000	5.384255  
328.500000	5.823124  
329.000000	6.112952  
329.500000	6.035824  
330.000000	5.754173  
330.500000	5.444584  
331.000000	5.265514  
331.500000	5.031052  
332.000000	4.863646  
332.500000	4.715530  
333.000000	4.659863  
333.500000	4.687963  
334.000000	4.617680  
334.500000	4.454665  
335.000000	4.274997  
335.500000	4.125687  
336.000000	4.067385  
336.500000	4.231754  
337.000000	4.458646  
337.500000	4.849097  
338.000000	5.425836  
338.500000	5.970831  
339.000000	6.330898  
339.500000	6.313816  
340.000000	6.085769  
340.500000	5.695738  
341.000000	5.322117  
341.500000	4.861675  
342.000000	4.555521  
342.500000	4.543662  
343.000000	4.780471  
343.500000	5.234039  
344.000000	5.566988  
344.500000	5.932061  
345.000000	6.228790  
345.500000	6.479911  
346.000000	6.452998  
346.500000	6.374787  
347.000000	6.357238  
347.500000	6.337250  
348.000000	6.301210  
348.500000	6.180335  
349.000000	6.126861  
349.500000	6.080530  
350.000000	6.148536  
350.500000	6.183476  
351.000000	6.270163  
351.500000	6.475395  
352.000000	6.698020  
352.500000	6.875653  
353.000000	7.021442  
353.500000	7.141217  
354.000000	7.141017  
354.500000	7.287205  
355.000000	7.331020  
355.500000	7.305018  
356.000000	7.281689  
356.500000	7.243545  
357.000000	7.211195  
357.500000	7.111791  
358.000000	7.107418  
358.500000	6.978840  
359.000000	6.957542  
359.500000	6.927886  
360.000000	6.928741  
360.500000	6.894578  
361.000000	6.844068  
361.500000	6.901572  
362.000000	6.944225  
362.500000	7.090554  
363.000000	7.244348  
363.500000	7.499159  
364.000000	7.684029  
364.500000	7.892300  
365.000000	7.982617  
365.500000	7.935732  
366.000000	7.803807  
366.500000	7.562146  
367.000000	7.316968  
367.500000	7.170027  
368.000000	7.123943  
368.500000	7.082165  
369.000000	7.127950  
369.500000	7.149391  
370.000000	7.116454  
370.500000	7.040796  
371.000000	6.907251  
371.500000	6.692362  
372.000000	6.558619  
372.500000	6.540310  
373.000000	6.585958  
373.500000	6.737318  
374.000000	6.885906  
374.500000	7.044745  
375.000000	7.145637  
375.500000	7.229483  
376.000000	7.235382  
376.500000	7.214400  
377.000000	7.137465  
377.500000	7.083118  
378.000000	7.040981  
378.500000	6.923416  
379.000000	6.785997  
379.500000	6.540606  
380.000000	6.319375  
380.500000	6.117989  
381.000000	5.941610  
381.500000	5.757404  
382.000000	5.658510  
382.500000	5.614372  
383.000000	5.553122  
383.500000	5.603112  
384.000000	5.593734  
384.500000	5.638722  
385.000000	5.718911  
385.500000	5.799455  
386.000000	5.854336  
386.500000	5.921589  
387.000000	5.978732  
387.500000	5.935610  
388.000000	5.893576  
388.500000	5.782225  
389.000000	5.687184  
389.500000	5.535900  
390.000000	5.365242  
390.500000	5.259812  
391.000000	5.179682  
391.500000	5.102148  
392.000000	5.033936  
392.500000	4.993542  
393.000000	4.923856  
393.500000	4.892503  
394.000000	4.850025  
394.500000	4.789252  
395.000000	4.810493  
395.500000	4.842794  
396.000000	4.815387  
396.500000	4.837628  
397.000000	4.857616  
397.500000	4.857597  
398.000000	4.844194  
398.500000	4.823419  
399.000000	4.790590  
399.500000	4.784762  
400.000000	4.748618  
400.500000	4.688735  
401.000000	4.679486  
401.500000	4.702970  
402.000000	4.708782  
402.500000	4.703048  
403.000000	4.724428  
403.500000	4.760305  
404.000000	4.790898  
404.500000	4.724102  
405.000000	4.662615  
405.500000	4.601678  
406.000000	4.521088  
406.500000	4.383632  
407.000000	4.228989  
407.500000	4.108005  
408.000000	4.040135  
408.500000	4.026326  
409.000000	3.957674  
409.500000	3.972911  
410.000000	4.038235  
410.500000	4.136282  
411.000000	4.184831  
411.500000	4.158971  
412.000000	4.111714  
412.500000	4.021483  
413.000000	3.898354  
413.500000	3.714065  
414.000000	3.553799  
414.500000	3.451762  
415.000000	3.425209  
415.500000	3.428998  
416.000000	3.399084  
416.500000	3.400472  
417.000000	3.421422  
417.500000	3.442773  
418.000000	3.451886  
418.500000	3.454479  
419.000000	3.465274  
419.500000	3.538554  
420.000000	3.606126  
420.500000	3.600954  
421.000000	3.573496  
421.500000	3.507523  
422.000000	3.443301  
422.500000	3.403053  
423.000000	3.346954  
423.500000	3.286646  
424.000000	3.278394  
424.500000	3.280255  
425.000000	3.257341  
425.500000	3.206876  
426.000000	3.094628  
426.500000	2.958808  
427.000000	2.863529  
427.500000	2.784070  
428.000000	2.711563  
428.500000	2.669605  
429.000000	2.662834  
429.500000	2.686688  
430.000000	2.754415  
430.500000	2.788379  
431.000000	2.767526  
431.500000	2.751531  
432.000000	2.749656  
432.500000	2.747685  
433.000000	2.715105  
433.500000	2.667977  
434.000000	2.631545  
434.500000	2.661989  
435.000000	2.722764  
435.500000	2.742048  
436.000000	2.733222  
436.500000	2.750914  
437.000000	2.764714  
437.500000	2.744067  
438.000000	2.695050  
438.500000	2.621574  
439.000000	2.594267  
439.500000	2.598835  
440.000000	2.630138  
440.500000	2.655250  
441.000000	2.729843  
441.500000	2.807407  
442.000000	2.841861  
442.500000	2.829864  
443.000000	2.786244  
443.500000	2.760027  
444.000000	2.733339  
444.500000	2.726845  

