PE FL                   SPECTRUM    ASCII       PEDS        1.60        
  -1
PMDF41~1
23/10/12
12:32:24.00
23/10/12
12:32:24.00


444.500000
1









LS55
20.00
5.00
5.00
SCAN
1
20
100
500
0
500
0
2
0
1
7
ON
500 450 
1 0 0
#HDR
-1
-1
#GR
NM

0.00002384185791015625
0.0
250.000000
0.500000
390
8
15.200531
-3.793173
#DATA
250.000000	-1.468000 
250.500000	-1.132784 
251.000000	-0.881286 
251.500000	-0.816520 
252.000000	-0.543352 
252.500000	-0.312502 
253.000000	-0.040567 
253.500000	-0.130438 
254.000000	-0.228531 
254.500000	-0.359679 
255.000000	-0.791193 
255.500000	-1.377515 
256.000000	-2.144710 
256.500000	-2.888157 
257.000000	-3.473202 
257.500000	-3.660694 
258.000000	-3.600606 
258.500000	-3.371924 
259.000000	-3.097924 
259.500000	-3.136319 
260.000000	-3.195983 
260.500000	-3.215775 
261.000000	-3.487393 
261.500000	-3.713487 
262.000000	-3.705692 
262.500000	-3.472558 
263.000000	-3.106933 
263.500000	-2.724599 
264.000000	-2.584886 
264.500000	-2.526374 
265.000000	-2.744883 
265.500000	-3.257470 
266.000000	-3.636482 
266.500000	-3.793173 
267.000000	-3.567213 
267.500000	-3.007184 
268.000000	-2.556308 
268.500000	-2.061383 
269.000000	-1.311735 
269.500000	-0.960202 
270.000000	-0.839539 
270.500000	-0.633093 
271.000000	-0.458761 
271.500000	-0.181224 
272.000000	0.027377  
272.500000	-0.253764 
273.000000	-0.632709 
273.500000	-0.678752 
274.000000	-1.172016 
274.500000	-1.771783 
275.000000	-2.422853 
275.500000	-2.571235 
276.000000	-2.430373 
276.500000	-1.741025 
277.000000	-1.193784 
277.500000	-0.604595 
278.000000	0.235413  
278.500000	0.826311  
279.000000	1.278223  
279.500000	0.941358  
280.000000	0.696587  
280.500000	-0.014153 
281.000000	-0.745907 
281.500000	-1.659816 
282.000000	-2.505754 
282.500000	-3.159221 
283.000000	-3.481398 
283.500000	-3.258874 
284.000000	-3.268786 
284.500000	-3.056007 
285.000000	-3.098007 
285.500000	-3.140530 
286.000000	-3.020832 
286.500000	-2.873350 
287.000000	-2.683037 
287.500000	-2.386387 
288.000000	-2.071834 
288.500000	-1.719854 
289.000000	-1.414563 
289.500000	-1.408434 
290.000000	-1.488335 
290.500000	-1.482269 
291.000000	-1.214556 
291.500000	-0.726090 
292.000000	-0.064285 
292.500000	0.499175  
293.000000	1.026344  
293.500000	1.464557  
294.000000	1.366097  
294.500000	1.109636  
295.000000	0.445248  
295.500000	0.015107  
296.000000	0.057977  
296.500000	0.376358  
297.000000	0.662123  
297.500000	0.934344  
298.000000	1.320484  
298.500000	1.204677  
299.000000	1.096342  
299.500000	0.335275  
300.000000	-0.323507 
300.500000	-0.587995 
301.000000	-0.430983 
301.500000	-0.065985 
302.000000	0.297870  
302.500000	0.647893  
303.000000	0.820323  
303.500000	0.949756  
304.000000	0.800248  
304.500000	0.380298  
305.000000	0.047021  
305.500000	0.249260  
306.000000	0.718062  
306.500000	1.188683  
307.000000	1.635341  
307.500000	2.036887  
308.000000	2.609105  
308.500000	3.309181  
309.000000	3.798613  
309.500000	4.162030  
310.000000	4.762355  
310.500000	5.629712  
311.000000	6.479285  
311.500000	7.211221  
312.000000	7.508780  
312.500000	7.740321  
313.000000	8.038535  
313.500000	8.314367  
314.000000	8.569787  
314.500000	8.907553  
315.000000	9.398553  
315.500000	9.989657  
316.000000	10.640750 
316.500000	10.949427 
317.000000	11.159416 
317.500000	11.247341 
318.000000	11.454964 
318.500000	11.819467 
319.000000	12.245059 
319.500000	12.631307 
320.000000	13.103181 
320.500000	13.709902 
321.000000	14.189196 
321.500000	14.496768 
322.000000	14.448719 
322.500000	14.228760 
323.000000	14.156145 
323.500000	14.190189 
324.000000	14.237064 
324.500000	14.304716 
325.000000	14.483142 
325.500000	14.702754 
326.000000	15.021049 
326.500000	15.200531 
327.000000	14.939178 
327.500000	14.663706 
328.000000	14.395856 
328.500000	14.151197 
329.000000	13.663259 
329.500000	13.241344 
330.000000	12.737619 
330.500000	12.459863 
331.000000	12.316346 
331.500000	11.975769 
332.000000	11.727186 
332.500000	11.404653 
333.000000	11.263116 
333.500000	10.876955 
334.000000	10.439917 
334.500000	9.951127  
335.000000	9.506239  
335.500000	9.291778  
336.000000	9.070692  
336.500000	8.933588  
337.000000	8.889427  
337.500000	9.031795  
338.000000	9.079877  
338.500000	9.012880  
339.000000	8.778005  
339.500000	8.473504  
340.000000	8.211411  
340.500000	7.854161  
341.000000	7.504124  
341.500000	7.233081  
342.000000	6.994613  
342.500000	6.720968  
343.000000	6.407327  
343.500000	5.910112  
344.000000	5.348529  
344.500000	4.941320  
345.000000	4.665918  
345.500000	4.533211  
346.000000	4.664325  
346.500000	4.908798  
347.000000	5.240122  
347.500000	5.671193  
348.000000	5.902138  
348.500000	5.965480  
349.000000	5.899074  
349.500000	5.768696  
350.000000	5.631359  
350.500000	5.507482  
351.000000	5.482173  
351.500000	5.533063  
352.000000	5.686370  
352.500000	5.877392  
353.000000	5.927261  
353.500000	5.870458  
354.000000	5.825699  
354.500000	5.737298  
355.000000	5.554825  
355.500000	5.358654  
356.000000	5.266084  
356.500000	5.247058  
357.000000	5.269531  
357.500000	5.233674  
358.000000	5.132120  
358.500000	4.983769  
359.000000	4.795440  
359.500000	4.582552  
360.000000	4.354788  
360.500000	4.289533  
361.000000	4.388593  
361.500000	4.631442  
362.000000	4.932121  
362.500000	5.181979  
363.000000	5.274380  
363.500000	5.269578  
364.000000	5.209546  
364.500000	4.986967  
365.000000	4.745621  
365.500000	4.606504  
366.000000	4.559643  
366.500000	4.682602  
367.000000	4.796703  
367.500000	4.859101  
368.000000	4.951868  
368.500000	5.101483  
369.000000	5.264022  
369.500000	5.434519  
370.000000	5.589057  
370.500000	5.698142  
371.000000	5.918562  
371.500000	5.969449  
372.000000	5.861626  
372.500000	5.754095  
373.000000	5.608347  
373.500000	5.434039  
374.000000	5.330210  
374.500000	5.211801  
375.000000	5.112797  
375.500000	5.207126  
376.000000	5.223434  
376.500000	5.216217  
377.000000	5.246813  
377.500000	5.279688  
378.000000	5.215048  
378.500000	5.190951  
379.000000	5.073797  
379.500000	4.923219  
380.000000	4.899540  
380.500000	4.869964  
381.000000	4.890025  
381.500000	4.958262  
382.000000	5.105763  
382.500000	5.272105  
383.000000	5.437025  
383.500000	5.507549  
384.000000	5.512002  
384.500000	5.514917  
385.000000	5.420503  
385.500000	5.287850  
386.000000	5.110942  
386.500000	4.934266  
387.000000	4.796987  
387.500000	4.685114  
388.000000	4.562176  
388.500000	4.463228  
389.000000	4.460603  
389.500000	4.553139  
390.000000	4.666513  
390.500000	4.794652  
391.000000	4.881284  
391.500000	4.946305  
392.000000	5.007823  
392.500000	4.965154  
393.000000	4.857260  
393.500000	4.733725  
394.000000	4.614383  
394.500000	4.479048  
395.000000	4.384462  
395.500000	4.301212  
396.000000	4.196823  
396.500000	4.182672  
397.000000	4.147810  
397.500000	4.105050  
398.000000	4.061048  
398.500000	4.021583  
399.000000	3.981059  
399.500000	3.976503  
400.000000	3.989108  
400.500000	3.995001  
401.000000	4.065190  
401.500000	4.134115  
402.000000	4.226711  
402.500000	4.313281  
403.000000	4.383187  
403.500000	4.406928  
404.000000	4.399920  
404.500000	4.395393  
405.000000	4.361465  
405.500000	4.296100  
406.000000	4.222078  
406.500000	4.189337  
407.000000	4.205865  
407.500000	4.244344  
408.000000	4.324448  
408.500000	4.418348  
409.000000	4.579853  
409.500000	4.754212  
410.000000	4.851267  
410.500000	4.875224  
411.000000	4.856683  
411.500000	4.861963  
412.000000	4.810545  
412.500000	4.733981  
413.000000	4.635354  
413.500000	4.624318  
414.000000	4.670443  
414.500000	4.699850  
415.000000	4.676801  
415.500000	4.623653  
416.000000	4.604920  
416.500000	4.540539  
417.000000	4.431765  
417.500000	4.291335  
418.000000	4.190452  
418.500000	4.100271  
419.000000	4.018864  
419.500000	3.920050  
420.000000	3.836279  
420.500000	3.798810  
421.000000	3.788239  
421.500000	3.735821  
422.000000	3.679293  
422.500000	3.664732  
423.000000	3.644337  
423.500000	3.640025  
424.000000	3.617007  
424.500000	3.603125  
425.000000	3.642155  
425.500000	3.699668  
426.000000	3.683341  
426.500000	3.641689  
427.000000	3.614856  
427.500000	3.531221  
428.000000	3.401150  
428.500000	3.230528  
429.000000	3.025785  
429.500000	2.895559  
430.000000	2.828547  
430.500000	2.786121  
431.000000	2.786584  
431.500000	2.856816  
432.000000	2.909263  
432.500000	2.961914  
433.000000	2.994158  
433.500000	2.950563  
434.000000	2.878344  
434.500000	2.772234  
435.000000	2.669652  
435.500000	2.612185  
436.000000	2.619390  
436.500000	2.640015  
437.000000	2.687571  
437.500000	2.759792  
438.000000	2.843270  
438.500000	2.925465  
439.000000	2.967561  
439.500000	2.983054  
440.000000	2.995447  
440.500000	2.997377  
441.000000	2.978010  
441.500000	2.928148  
442.000000	2.837377  
442.500000	2.737163  
443.000000	2.650907  
443.500000	2.587217  
444.000000	2.526619  
444.500000	2.489959  

