PE FL                   SPECTRUM    ASCII       PEDS        1.60        
  -1
PMDF21~1
23/10/12
12:31:03.00
23/10/12
12:31:03.00


444.500000
1









LS55
10.00
5.00
5.00
SCAN
1
20
100
500
0
500
0
2
0
1
7
ON
500 450 
1 0 0
#HDR
-1
-1
#GR
NM

0.00002384185791015625
0.0
250.000000
0.500000
390
8
8.118701
-5.000000
#DATA
250.000000	-5.000000 
250.500000	-4.747381 
251.000000	-4.718126 
251.500000	-3.974348 
252.000000	-2.866304 
252.500000	-1.710246 
253.000000	-0.572897 
253.500000	0.504678  
254.000000	0.642335  
254.500000	0.462940  
255.000000	0.123378  
255.500000	-0.692557 
256.000000	-1.336745 
256.500000	-1.582245 
257.000000	-1.655185 
257.500000	-1.495875 
258.000000	-1.045740 
258.500000	-1.069150 
259.000000	-1.086963 
259.500000	-1.240826 
260.000000	-1.482887 
260.500000	-1.526480 
261.000000	-1.144871 
261.500000	-0.615338 
262.000000	-0.088728 
262.500000	0.309623  
263.000000	0.315461  
263.500000	0.067142  
264.000000	-0.939028 
264.500000	-2.151564 
265.000000	-3.323513 
265.500000	-4.170836 
266.000000	-4.484641 
266.500000	-4.384645 
267.000000	-3.768798 
267.500000	-2.921256 
268.000000	-1.926649 
268.500000	-1.421430 
269.000000	-1.246647 
269.500000	-1.424287 
270.000000	-1.946846 
270.500000	-2.452111 
271.000000	-3.147343 
271.500000	-3.719568 
272.000000	-4.021808 
272.500000	-4.009494 
273.000000	-3.797767 
273.500000	-3.585008 
274.000000	-3.375343 
274.500000	-3.358109 
275.000000	-3.334949 
275.500000	-3.550232 
276.000000	-3.939509 
276.500000	-4.151960 
277.000000	-4.175301 
277.500000	-4.169508 
278.000000	-4.023211 
278.500000	-3.747775 
279.000000	-3.493702 
279.500000	-2.953233 
280.000000	-2.382852 
280.500000	-2.059546 
281.000000	-1.608159 
281.500000	-1.069852 
282.000000	-0.800241 
282.500000	-0.797350 
283.000000	-1.076522 
283.500000	-1.707018 
284.000000	-2.276844 
284.500000	-2.873226 
285.000000	-3.697945 
285.500000	-4.322771 
286.000000	-4.450190 
286.500000	-4.270933 
287.000000	-3.648812 
287.500000	-2.691509 
288.000000	-1.635576 
288.500000	-0.504321 
289.000000	0.559767  
289.500000	1.364126  
290.000000	1.606859  
290.500000	1.578311  
291.000000	1.273107  
291.500000	0.809885  
292.000000	0.138323  
292.500000	-0.564249 
293.000000	-1.135389 
293.500000	-1.717029 
294.000000	-1.901514 
294.500000	-2.099105 
295.000000	-1.941963 
295.500000	-1.577312 
296.000000	-0.864827 
296.500000	-0.133263 
297.000000	0.383600  
297.500000	0.762411  
298.000000	0.747318  
298.500000	0.539902  
299.000000	-0.051243 
299.500000	-0.656170 
300.000000	-1.298300 
300.500000	-1.566413 
301.000000	-1.506231 
301.500000	-1.198375 
302.000000	-0.769629 
302.500000	-0.048477 
303.000000	0.607413  
303.500000	0.955944  
304.000000	1.328520  
304.500000	1.315981  
305.000000	1.148890  
305.500000	1.032559  
306.000000	1.013402  
306.500000	0.814853  
307.000000	1.123447  
307.500000	1.456250  
308.000000	1.582987  
308.500000	1.620094  
309.000000	1.421035  
309.500000	1.071916  
310.000000	0.740611  
310.500000	0.475053  
311.000000	0.237662  
311.500000	0.585182  
312.000000	1.316241  
312.500000	2.041462  
313.000000	2.676015  
313.500000	3.078868  
314.000000	3.360866  
314.500000	3.450358  
315.000000	3.408167  
315.500000	3.190240  
316.000000	3.302816  
316.500000	3.666872  
317.000000	4.034610  
317.500000	4.262696  
318.000000	4.421690  
318.500000	4.456507  
319.000000	4.297965  
319.500000	4.154769  
320.000000	4.027780  
320.500000	4.211824  
321.000000	4.747575  
321.500000	5.158970  
322.000000	5.626275  
322.500000	6.185708  
323.000000	6.656697  
323.500000	6.903172  
324.000000	7.102402  
324.500000	7.185586  
325.000000	7.284538  
325.500000	7.616643  
326.000000	7.830539  
326.500000	7.926703  
327.000000	8.111318  
327.500000	8.118701  
328.000000	8.005847  
328.500000	7.866068  
329.000000	7.769049  
329.500000	7.439533  
330.000000	7.337077  
330.500000	7.260308  
331.000000	7.159810  
331.500000	7.157474  
332.000000	7.074651  
332.500000	6.952414  
333.000000	6.976662  
333.500000	7.040389  
334.000000	6.817715  
334.500000	6.657473  
335.000000	6.571276  
335.500000	6.415438  
336.000000	6.393374  
336.500000	6.173442  
337.000000	5.963298  
337.500000	5.898109  
338.000000	5.856006  
338.500000	5.697960  
339.000000	5.584136  
339.500000	5.646292  
340.000000	5.808099  
340.500000	6.028040  
341.000000	6.005601  
341.500000	5.869920  
342.000000	5.894819  
342.500000	5.797931  
343.000000	5.593057  
343.500000	5.276109  
344.000000	5.042186  
344.500000	5.139531  
345.000000	5.325720  
345.500000	5.400637  
346.000000	5.287645  
346.500000	5.218389  
347.000000	5.054896  
347.500000	4.760161  
348.000000	4.299395  
348.500000	3.739304  
349.000000	3.443082  
349.500000	3.253665  
350.000000	3.196681  
350.500000	3.209488  
351.000000	3.452148  
351.500000	3.767750  
352.000000	4.028141  
352.500000	4.267094  
353.000000	4.259666  
353.500000	4.206766  
354.000000	3.973819  
354.500000	3.638697  
355.000000	3.381313  
355.500000	3.235915  
356.000000	3.207474  
356.500000	3.194823  
357.000000	3.356151  
357.500000	3.575671  
358.000000	3.781665  
358.500000	3.919127  
359.000000	3.913749  
359.500000	3.919693  
360.000000	3.887961  
360.500000	3.845774  
361.000000	3.729660  
361.500000	3.717704  
362.000000	3.737709  
362.500000	3.744890  
363.000000	3.744730  
363.500000	3.756843  
364.000000	3.861450  
364.500000	3.910012  
365.000000	3.893557  
365.500000	3.800506  
366.000000	3.787192  
366.500000	3.809281  
367.000000	3.777700  
367.500000	3.725319  
368.000000	3.717110  
368.500000	3.775266  
369.000000	3.804569  
369.500000	3.770963  
370.000000	3.616881  
370.500000	3.509493  
371.000000	3.443319  
371.500000	3.418021  
372.000000	3.376974  
372.500000	3.431250  
373.000000	3.510427  
373.500000	3.558356  
374.000000	3.616639  
374.500000	3.571901  
375.000000	3.563900  
375.500000	3.605024  
376.000000	3.674091  
376.500000	3.658916  
377.000000	3.717897  
377.500000	3.764377  
378.000000	3.729340  
378.500000	3.663859  
379.000000	3.490011  
379.500000	3.273206  
380.000000	3.098367  
380.500000	3.007462  
381.000000	2.894035  
381.500000	2.907947  
382.000000	3.030396  
382.500000	3.213013  
383.000000	3.409342  
383.500000	3.523320  
384.000000	3.531970  
384.500000	3.509747  
385.000000	3.492853  
385.500000	3.467085  
386.000000	3.417135  
386.500000	3.332436  
387.000000	3.321511  
387.500000	3.393815  
388.000000	3.497986  
388.500000	3.516749  
389.000000	3.504010  
389.500000	3.515857  
390.000000	3.604090  
390.500000	3.689335  
391.000000	3.690115  
391.500000	3.690399  
392.000000	3.745746  
392.500000	3.823770  
393.000000	3.845116  
393.500000	3.778867  
394.000000	3.688552  
394.500000	3.641614  
395.000000	3.590446  
395.500000	3.486655  
396.000000	3.355164  
396.500000	3.240396  
397.000000	3.190246  
397.500000	3.183418  
398.000000	3.150031  
398.500000	3.165893  
399.000000	3.189166  
399.500000	3.193621  
400.000000	3.209718  
400.500000	3.243944  
401.000000	3.239424  
401.500000	3.248748  
402.000000	3.279252  
402.500000	3.296975  
403.000000	3.326025  
403.500000	3.302912  
404.000000	3.236381  
404.500000	3.186641  
405.000000	3.165542  
405.500000	3.139123  
406.000000	3.167490  
406.500000	3.209365  
407.000000	3.257260  
407.500000	3.321946  
408.000000	3.358791  
408.500000	3.363453  
409.000000	3.369683  
409.500000	3.348582  
410.000000	3.303036  
410.500000	3.320088  
411.000000	3.351232  
411.500000	3.423298  
412.000000	3.536556  
412.500000	3.639979  
413.000000	3.739917  
413.500000	3.850011  
414.000000	3.878737  
414.500000	3.794450  
415.000000	3.662230  
415.500000	3.460557  
416.000000	3.248558  
416.500000	3.068424  
417.000000	2.916691  
417.500000	2.828483  
418.000000	2.825707  
418.500000	2.839820  
419.000000	2.846058  
419.500000	2.883081  
420.000000	2.868876  
420.500000	2.838566  
421.000000	2.828458  
421.500000	2.814338  
422.000000	2.810388  
422.500000	2.819097  
423.000000	2.794745  
423.500000	2.740068  
424.000000	2.701528  
424.500000	2.636736  
425.000000	2.590201  
425.500000	2.563791  
426.000000	2.585718  
426.500000	2.666783  
427.000000	2.784652  
427.500000	2.883131  
428.000000	2.935626  
428.500000	2.953711  
429.000000	2.917289  
429.500000	2.862023  
430.000000	2.763255  
430.500000	2.667278  
431.000000	2.580036  
431.500000	2.503181  
432.000000	2.451384  
432.500000	2.415780  
433.000000	2.387598  
433.500000	2.359698  
434.000000	2.356815  
434.500000	2.350498  
435.000000	2.350268  
435.500000	2.332733  
436.000000	2.299599  
436.500000	2.269030  
437.000000	2.219611  
437.500000	2.166802  
438.000000	2.135888  
438.500000	2.111355  
439.000000	2.107986  
439.500000	2.118904  
440.000000	2.127098  
440.500000	2.132624  
441.000000	2.147050  
441.500000	2.136709  
442.000000	2.100895  
442.500000	2.083496  
443.000000	2.077353  
443.500000	2.102036  
444.000000	2.140817  
444.500000	2.175159  

