PE FL                   SPECTRUM    ASCII       PEDS        1.60        
  -1
PMDF31~1
23/10/12
12:31:43.00
23/10/12
12:31:43.00


444.500000
1









LS55
15.00
5.00
5.00
SCAN
1
20
100
500
0
500
0
2
0
1
7
ON
500 450 
1 0 0
#HDR
-1
-1
#GR
NM

0.00002384185791015625
0.0
250.000000
0.500000
390
8
12.337180
-5.000000
#DATA
250.000000	-5.000000 
250.500000	-3.197472 
251.000000	-1.931715 
251.500000	-1.184442 
252.000000	-0.919168 
252.500000	-1.122939 
253.000000	-1.530941 
253.500000	-2.219251 
254.000000	-3.016076 
254.500000	-3.462317 
255.000000	-3.738127 
255.500000	-3.868044 
256.000000	-4.007799 
256.500000	-4.208665 
257.000000	-4.514468 
257.500000	-4.696118 
258.000000	-4.644908 
258.500000	-4.340388 
259.000000	-3.768795 
259.500000	-3.006844 
260.000000	-1.965539 
260.500000	-0.952845 
261.000000	-0.033652 
261.500000	0.263016  
262.000000	0.039981  
262.500000	-0.564974 
263.000000	-1.226989 
263.500000	-1.979528 
264.000000	-2.674515 
264.500000	-3.135703 
265.000000	-3.690677 
265.500000	-3.573080 
266.000000	-3.381320 
266.500000	-3.272070 
267.000000	-3.132555 
267.500000	-2.921546 
268.000000	-2.752813 
268.500000	-2.437504 
269.000000	-1.783157 
269.500000	-1.671894 
270.000000	-1.319119 
270.500000	-0.905164 
271.000000	-0.722458 
271.500000	-0.673317 
272.000000	-0.887254 
272.500000	-1.108404 
273.000000	-1.367127 
273.500000	-1.202901 
274.000000	-1.324877 
274.500000	-1.306191 
275.000000	-0.995993 
275.500000	-0.825982 
276.000000	-0.758745 
276.500000	-1.140609 
277.000000	-1.658876 
277.500000	-2.234195 
278.000000	-2.604977 
278.500000	-2.824417 
279.000000	-2.998477 
279.500000	-2.885675 
280.000000	-2.355264 
280.500000	-1.826265 
281.000000	-1.663626 
281.500000	-1.671369 
282.000000	-1.708340 
282.500000	-1.617268 
283.000000	-1.445233 
283.500000	-1.421298 
284.000000	-1.485749 
284.500000	-1.340525 
285.000000	-1.420830 
285.500000	-1.591929 
286.000000	-1.868651 
286.500000	-2.241054 
287.000000	-2.404992 
287.500000	-2.381471 
288.000000	-2.301183 
288.500000	-2.228163 
289.000000	-1.885273 
289.500000	-1.914328 
290.000000	-1.861852 
290.500000	-1.666132 
291.000000	-1.718925 
291.500000	-1.761992 
292.000000	-1.973467 
292.500000	-2.170817 
293.000000	-2.421552 
293.500000	-2.429977 
294.000000	-2.564817 
294.500000	-2.663326 
295.000000	-2.300855 
295.500000	-1.861131 
296.000000	-1.320744 
296.500000	-1.010183 
297.000000	-0.806851 
297.500000	-0.944183 
298.000000	-1.288553 
298.500000	-1.758617 
299.000000	-2.422362 
299.500000	-2.769738 
300.000000	-3.000679 
300.500000	-2.920059 
301.000000	-2.948998 
301.500000	-2.808049 
302.000000	-2.441314 
302.500000	-1.873643 
303.000000	-1.085100 
303.500000	-0.156073 
304.000000	0.939921  
304.500000	2.135332  
305.000000	3.422708  
305.500000	4.041091  
306.000000	4.096010  
306.500000	3.864632  
307.000000	3.295527  
307.500000	2.535971  
308.000000	2.146033  
308.500000	1.947197  
309.000000	2.094806  
309.500000	2.611039  
310.000000	3.036805  
310.500000	3.320339  
311.000000	3.695531  
311.500000	3.776486  
312.000000	3.775270  
312.500000	3.931015  
313.000000	4.129772  
313.500000	4.440084  
314.000000	4.640721  
314.500000	4.711078  
315.000000	4.842987  
315.500000	5.296814  
316.000000	5.618684  
316.500000	6.059266  
317.000000	6.500496  
317.500000	7.071536  
318.000000	7.695599  
318.500000	8.108996  
319.000000	8.432223  
319.500000	8.749300  
320.000000	9.134145  
320.500000	9.473216  
321.000000	9.965518  
321.500000	10.410869 
322.000000	10.893752 
322.500000	11.283257 
323.000000	11.547506 
323.500000	11.855190 
324.000000	12.137668 
324.500000	12.328619 
325.000000	12.337180 
325.500000	12.214367 
326.000000	12.009208 
326.500000	11.748585 
327.000000	11.376702 
327.500000	10.955619 
328.000000	10.793259 
328.500000	10.834407 
329.000000	11.078892 
329.500000	11.292629 
330.000000	11.501018 
330.500000	11.728064 
331.000000	11.865449 
331.500000	11.860885 
332.000000	11.645557 
332.500000	11.327014 
333.000000	10.867398 
333.500000	10.348056 
334.000000	9.599366  
334.500000	8.797979  
335.000000	8.050006  
335.500000	7.458683  
336.000000	6.985092  
336.500000	6.651387  
337.000000	6.490314  
337.500000	6.447087  
338.000000	6.584038  
338.500000	6.683481  
339.000000	6.760502  
339.500000	6.874914  
340.000000	7.028483  
340.500000	7.112245  
341.000000	7.046660  
341.500000	6.889616  
342.000000	6.680469  
342.500000	6.380096  
343.000000	6.083916  
343.500000	5.748495  
344.000000	5.475766  
344.500000	5.341829  
345.000000	5.251783  
345.500000	5.184850  
346.000000	5.156283  
346.500000	5.255329  
347.000000	5.183010  
347.500000	5.168237  
348.000000	4.987388  
348.500000	4.799368  
349.000000	4.638501  
349.500000	4.401498  
350.000000	4.166313  
350.500000	4.044716  
351.000000	4.047404  
351.500000	3.928995  
352.000000	3.911091  
352.500000	3.875297  
353.000000	3.871767  
353.500000	3.914005  
354.000000	3.866501  
354.500000	3.832062  
355.000000	3.924920  
355.500000	3.973163  
356.000000	4.020392  
356.500000	4.137415  
357.000000	4.300992  
357.500000	4.460636  
358.000000	4.497579  
358.500000	4.440045  
359.000000	4.373740  
359.500000	4.243561  
360.000000	3.995268  
360.500000	3.855519  
361.000000	3.740776  
361.500000	3.806262  
362.000000	3.970296  
362.500000	4.057007  
363.000000	4.196562  
363.500000	4.393878  
364.000000	4.422298  
364.500000	4.234374  
365.000000	4.104317  
365.500000	3.924510  
366.000000	3.745605  
366.500000	3.647820  
367.000000	3.620189  
367.500000	3.742737  
368.000000	3.942392  
368.500000	4.103984  
369.000000	4.167107  
369.500000	4.331227  
370.000000	4.442329  
370.500000	4.379465  
371.000000	4.165478  
371.500000	3.921172  
372.000000	3.736486  
372.500000	3.551918  
373.000000	3.466995  
373.500000	3.450395  
374.000000	3.586426  
374.500000	3.860801  
375.000000	4.116150  
375.500000	4.235699  
376.000000	4.234425  
376.500000	4.200699  
377.000000	4.045405  
377.500000	3.806815  
378.000000	3.567436  
378.500000	3.320357  
379.000000	3.179745  
379.500000	3.137669  
380.000000	3.188296  
380.500000	3.233706  
381.000000	3.395935  
381.500000	3.545449  
382.000000	3.689587  
382.500000	3.894165  
383.000000	4.025526  
383.500000	4.172124  
384.000000	4.290552  
384.500000	4.323073  
385.000000	4.227941  
385.500000	4.160043  
386.000000	4.084653  
386.500000	3.962414  
387.000000	3.905538  
387.500000	3.864785  
388.000000	3.919641  
388.500000	4.064258  
389.000000	4.182446  
389.500000	4.245891  
390.000000	4.306202  
390.500000	4.386126  
391.000000	4.385808  
391.500000	4.361427  
392.000000	4.267869  
392.500000	4.160022  
393.000000	4.105572  
393.500000	4.031179  
394.000000	3.957504  
394.500000	3.882282  
395.000000	3.879300  
395.500000	3.894793  
396.000000	3.953240  
396.500000	3.979983  
397.000000	4.017578  
397.500000	4.062940  
398.000000	4.071174  
398.500000	4.056796  
399.000000	3.984695  
399.500000	3.930131  
400.000000	3.846031  
400.500000	3.799894  
401.000000	3.715409  
401.500000	3.655459  
402.000000	3.649403  
402.500000	3.645522  
403.000000	3.661419  
403.500000	3.654147  
404.000000	3.691329  
404.500000	3.672177  
405.000000	3.668819  
405.500000	3.615322  
406.000000	3.547068  
406.500000	3.496127  
407.000000	3.446885  
407.500000	3.425520  
408.000000	3.430734  
408.500000	3.473150  
409.000000	3.488836  
409.500000	3.528791  
410.000000	3.522233  
410.500000	3.524116  
411.000000	3.526113  
411.500000	3.484603  
412.000000	3.458010  
412.500000	3.449171  
413.000000	3.442678  
413.500000	3.425804  
414.000000	3.435577  
414.500000	3.414652  
415.000000	3.401111  
415.500000	3.424508  
416.000000	3.424728  
416.500000	3.440588  
417.000000	3.482381  
417.500000	3.512793  
418.000000	3.523288  
418.500000	3.544731  
419.000000	3.531026  
419.500000	3.461002  
420.000000	3.407741  
420.500000	3.308751  
421.000000	3.174942  
421.500000	3.036242  
422.000000	2.893322  
422.500000	2.730299  
423.000000	2.588912  
423.500000	2.512003  
424.000000	2.456706  
424.500000	2.465155  
425.000000	2.510386  
425.500000	2.555335  
426.000000	2.617652  
426.500000	2.689104  
427.000000	2.701580  
427.500000	2.650251  
428.000000	2.559649  
428.500000	2.441013  
429.000000	2.333516  
429.500000	2.247998  
430.000000	2.164154  
430.500000	2.154174  
431.000000	2.223285  
431.500000	2.319175  
432.000000	2.405532  
432.500000	2.460225  
433.000000	2.474567  
433.500000	2.455212  
434.000000	2.431890  
434.500000	2.371279  
435.000000	2.334235  
435.500000	2.339700  
436.000000	2.365564  
436.500000	2.392796  
437.000000	2.409101  
437.500000	2.395274  
438.000000	2.324105  
438.500000	2.253177  
439.000000	2.184546  
439.500000	2.150296  
440.000000	2.168880  
440.500000	2.204309  
441.000000	2.259634  
441.500000	2.332352  
442.000000	2.399516  
442.500000	2.414301  
443.000000	2.385472  
443.500000	2.354801  
444.000000	2.327186  
444.500000	2.328491  

