PE FL                   SPECTRUM    ASCII       PEDS        1.60        
  -1
PMDF61~1
23/10/12
12:33:45.00
23/10/12
12:33:45.00


444.500000
1









LS55
30.00
5.00
5.00
SCAN
1
20
100
500
0
500
0
2
0
1
7
ON
500 450 
1 0 0
#HDR
-1
-1
#GR
NM

0.00002384185791015625
0.0
250.000000
0.500000
390
8
22.504256
-4.887590
#DATA
250.000000	1.468000  
250.500000	0.228381  
251.000000	-0.846301 
251.500000	-1.682876 
252.000000	-2.108621 
252.500000	-2.142284 
253.000000	-1.959137 
253.500000	-1.690189 
254.000000	-1.700298 
254.500000	-1.866275 
255.000000	-2.246542 
255.500000	-2.554671 
256.000000	-3.218256 
256.500000	-3.906638 
257.000000	-4.608105 
257.500000	-4.887590 
258.000000	-4.543096 
258.500000	-4.120163 
259.000000	-3.458851 
259.500000	-2.864412 
260.000000	-2.051669 
260.500000	-1.350134 
261.000000	-0.822884 
261.500000	-0.940494 
262.000000	-1.380703 
262.500000	-2.049761 
263.000000	-2.781324 
263.500000	-3.304380 
264.000000	-3.862765 
264.500000	-3.795826 
265.000000	-3.102126 
265.500000	-1.924676 
266.000000	-0.888948 
266.500000	-0.135253 
267.000000	0.362358  
267.500000	0.443079  
268.000000	0.285762  
268.500000	-0.460783 
269.000000	-1.312011 
269.500000	-2.044043 
270.000000	-2.600494 
270.500000	-2.968308 
271.000000	-3.265642 
271.500000	-3.335550 
272.000000	-3.298553 
272.500000	-3.025291 
273.000000	-2.832763 
273.500000	-2.654592 
274.000000	-2.361755 
274.500000	-2.067077 
275.000000	-1.687071 
275.500000	-1.610189 
276.000000	-1.604693 
276.500000	-1.586592 
277.000000	-1.345995 
277.500000	-1.064589 
278.000000	-0.858870 
278.500000	-0.749171 
279.000000	-0.879241 
279.500000	-1.171074 
280.000000	-1.631892 
280.500000	-2.356214 
281.000000	-3.302131 
281.500000	-3.926010 
282.000000	-4.378873 
282.500000	-4.555153 
283.000000	-4.371592 
283.500000	-3.774421 
284.000000	-2.628807 
284.500000	-1.179225 
285.000000	0.214271  
285.500000	1.118651  
286.000000	1.721101  
286.500000	1.892697  
287.000000	1.861174  
287.500000	1.547724  
288.000000	1.059732  
288.500000	0.677221  
289.000000	0.388066  
289.500000	0.088778  
290.000000	-0.422378 
290.500000	-0.995415 
291.000000	-1.580102 
291.500000	-1.934158 
292.000000	-2.345353 
292.500000	-2.516397 
293.000000	-2.413161 
293.500000	-2.051813 
294.000000	-1.552206 
294.500000	-0.997827 
295.000000	-0.709252 
295.500000	-0.580278 
296.000000	-0.220604 
296.500000	-0.159732 
297.000000	0.195472  
297.500000	0.662473  
298.000000	1.184389  
298.500000	1.654841  
299.000000	2.152872  
299.500000	2.282985  
300.000000	2.389691  
300.500000	2.655492  
301.000000	2.716552  
301.500000	2.957758  
302.000000	3.444958  
302.500000	4.088484  
303.000000	4.807882  
303.500000	5.575560  
304.000000	5.869077  
304.500000	6.254303  
305.000000	6.391047  
305.500000	6.575857  
306.000000	6.693617  
306.500000	7.138980  
307.000000	8.382653  
307.500000	10.199158 
308.000000	12.264442 
308.500000	14.043014 
309.000000	15.988892 
309.500000	17.241512 
310.000000	18.077224 
310.500000	18.291252 
311.000000	17.909297 
311.500000	17.628965 
312.000000	17.585674 
312.500000	17.705758 
313.000000	17.950333 
313.500000	18.621122 
314.000000	19.094014 
314.500000	19.608541 
315.000000	19.906442 
315.500000	19.863135 
316.000000	19.831876 
316.500000	19.939582 
317.000000	20.169682 
317.500000	20.670634 
318.000000	21.436930 
318.500000	22.048354 
319.000000	22.448119 
319.500000	22.504256 
320.000000	22.117200 
320.500000	21.394877 
321.000000	20.484302 
321.500000	19.353597 
322.000000	18.583296 
322.500000	18.125800 
323.000000	18.025490 
323.500000	18.198979 
324.000000	18.625139 
324.500000	19.203971 
325.000000	19.861690 
325.500000	20.358550 
326.000000	20.394743 
326.500000	20.390634 
327.000000	20.095043 
327.500000	19.772533 
328.000000	19.089691 
328.500000	18.275431 
329.000000	17.509906 
329.500000	16.868247 
330.000000	16.164451 
330.500000	15.282144 
331.000000	14.615029 
331.500000	13.922379 
332.000000	13.451285 
332.500000	12.967880 
333.000000	12.435037 
333.500000	12.066302 
334.000000	11.859053 
334.500000	11.360163 
335.000000	10.898833 
335.500000	10.453131 
336.000000	10.091147 
336.500000	9.821058  
337.000000	9.606753  
337.500000	9.520571  
338.000000	9.489569  
338.500000	9.599772  
339.000000	9.553239  
339.500000	9.424891  
340.000000	9.287732  
340.500000	9.163724  
341.000000	9.007654  
341.500000	8.779637  
342.000000	8.641653  
342.500000	8.393722  
343.000000	8.116258  
343.500000	7.753525  
344.000000	7.238006  
344.500000	6.718047  
345.000000	6.360201  
345.500000	6.151051  
346.000000	6.016527  
346.500000	6.217343  
347.000000	6.507727  
347.500000	6.787001  
348.000000	7.134392  
348.500000	7.341442  
349.000000	7.448449  
349.500000	7.517051  
350.000000	7.562839  
350.500000	7.546039  
351.000000	7.595812  
351.500000	7.756358  
352.000000	7.857058  
352.500000	7.953917  
353.000000	8.020077  
353.500000	7.983336  
354.000000	8.018210  
354.500000	7.956736  
355.000000	7.883519  
355.500000	7.754639  
356.000000	7.701856  
356.500000	7.500390  
357.000000	7.270520  
357.500000	7.003322  
358.000000	6.740227  
358.500000	6.664431  
359.000000	6.627652  
359.500000	6.781791  
360.000000	7.017090  
360.500000	7.448108  
361.000000	7.800250  
361.500000	8.058266  
362.000000	8.207687  
362.500000	8.160682  
363.000000	7.971495  
363.500000	7.600548  
364.000000	7.200475  
364.500000	6.830761  
365.000000	6.732652  
365.500000	6.765157  
366.000000	6.803010  
366.500000	6.935513  
367.000000	7.066149  
367.500000	7.182719  
368.000000	7.261976  
368.500000	7.224587  
369.000000	7.054421  
369.500000	6.979985  
370.000000	7.004964  
370.500000	6.936686  
371.000000	6.905007  
371.500000	6.889438  
372.000000	6.934558  
372.500000	7.065757  
373.000000	7.236254  
373.500000	7.320490  
374.000000	7.358379  
374.500000	7.497801  
375.000000	7.607441  
375.500000	7.669265  
376.000000	7.641015  
376.500000	7.542605  
377.000000	7.486711  
377.500000	7.469461  
378.000000	7.399760  
378.500000	7.183832  
379.000000	6.930541  
379.500000	6.722259  
380.000000	6.542405  
380.500000	6.391674  
381.000000	6.284903  
381.500000	6.297711  
382.000000	6.484306  
382.500000	6.748440  
383.000000	6.970669  
383.500000	7.106886  
384.000000	7.333105  
384.500000	7.574310  
385.000000	7.724708  
385.500000	7.800776  
386.000000	7.815231  
386.500000	7.852920  
387.000000	7.820535  
387.500000	7.785140  
388.000000	7.602983  
388.500000	7.437402  
389.000000	7.313223  
389.500000	7.199706  
390.000000	7.109760  
390.500000	7.043110  
391.000000	7.102628  
391.500000	7.158787  
392.000000	7.272976  
392.500000	7.393542  
393.000000	7.536477  
393.500000	7.639597  
394.000000	7.692622  
394.500000	7.646544  
395.000000	7.515005  
395.500000	7.382981  
396.000000	7.176240  
396.500000	7.045303  
397.000000	7.028581  
397.500000	7.156831  
398.000000	7.389777  
398.500000	7.662958  
399.000000	7.903091  
399.500000	8.079690  
400.000000	8.223260  
400.500000	8.218404  
401.000000	8.094363  
401.500000	7.869052  
402.000000	7.608438  
402.500000	7.383668  
403.000000	7.213829  
403.500000	7.146216  
404.000000	7.128428  
404.500000	7.189189  
405.000000	7.265456  
405.500000	7.371745  
406.000000	7.462872  
406.500000	7.484807  
407.000000	7.446662  
407.500000	7.364722  
408.000000	7.338378  
408.500000	7.256940  
409.000000	7.235671  
409.500000	7.212289  
410.000000	7.188054  
410.500000	7.198721  
411.000000	7.200341  
411.500000	7.173951  
412.000000	7.120153  
412.500000	7.147889  
413.000000	7.161521  
413.500000	7.199914  
414.000000	7.209463  
414.500000	7.156430  
415.000000	7.119666  
415.500000	7.035217  
416.000000	6.929794  
416.500000	6.799040  
417.000000	6.656987  
417.500000	6.512821  
418.000000	6.414915  
418.500000	6.308128  
419.000000	6.137306  
419.500000	6.021401  
420.000000	5.866008  
420.500000	5.711076  
421.000000	5.599933  
421.500000	5.486580  
422.000000	5.431124  
422.500000	5.415815  
423.000000	5.412399  
423.500000	5.375002  
424.000000	5.390761  
424.500000	5.399493  
425.000000	5.396972  
425.500000	5.400219  
426.000000	5.343355  
426.500000	5.276742  
427.000000	5.207977  
427.500000	5.096163  
428.000000	4.941880  
428.500000	4.818937  
429.000000	4.714970  
429.500000	4.648171  
430.000000	4.619990  
430.500000	4.604489  
431.000000	4.608026  
431.500000	4.649835  
432.000000	4.664898  
432.500000	4.641653  
433.000000	4.619680  
433.500000	4.577671  
434.000000	4.536674  
434.500000	4.496608  
435.000000	4.450381  
435.500000	4.387247  
436.000000	4.335286  
436.500000	4.269699  
437.000000	4.178727  
437.500000	4.103805  
438.000000	4.048353  
438.500000	4.013315  
439.000000	4.008754  
439.500000	4.020801  
440.000000	4.066703  
440.500000	4.131205  
441.000000	4.194574  
441.500000	4.245479  
442.000000	4.275581  
442.500000	4.283454  
443.000000	4.293444  
443.500000	4.295969  
444.000000	4.273136  
444.500000	4.285684  

