PE FL                   SPECTRUM    ASCII       PEDS        1.60        
  -1
PMDF91~1
23/10/12
12:35:46.00
23/10/12
12:35:46.00


444.500000
1









LS55
45.00
5.00
5.00
SCAN
1
20
100
500
0
500
0
2
0
1
7
ON
500 450 
1 0 0
#HDR
-1
-1
#GR
NM

0.00002384185791015625
0.0
250.000000
0.500000
390
8
31.149308
-4.393000
#DATA
250.000000	-4.393000 
250.500000	-3.673527 
251.000000	-3.057506 
251.500000	-2.583242 
252.000000	-2.325288 
252.500000	-2.155028 
253.000000	-2.330345 
253.500000	-2.759379 
254.000000	-3.343205 
254.500000	-3.756546 
255.000000	-4.072541 
255.500000	-4.334377 
256.000000	-4.304389 
256.500000	-4.079687 
257.000000	-3.509152 
257.500000	-2.688027 
258.000000	-2.055434 
258.500000	-1.278142 
259.000000	-0.318980 
259.500000	0.651527  
260.000000	1.132378  
260.500000	1.384873  
261.000000	1.185669  
261.500000	0.591831  
262.000000	0.190015  
262.500000	-0.578823 
263.000000	-1.345939 
263.500000	-1.645624 
264.000000	-1.458866 
264.500000	-1.328949 
265.000000	-0.966365 
265.500000	-0.627436 
266.000000	-0.517685 
266.500000	-0.226030 
267.000000	-0.534579 
267.500000	-0.991588 
268.000000	-1.192268 
268.500000	-1.250408 
269.000000	-1.548593 
269.500000	-2.076367 
270.000000	-2.313860 
270.500000	-2.565076 
271.000000	-2.414361 
271.500000	-2.464830 
272.000000	-2.399320 
272.500000	-2.019329 
273.000000	-1.722017 
273.500000	-1.375954 
274.000000	-1.482004 
274.500000	-1.538079 
275.000000	-1.730211 
275.500000	-1.749370 
276.000000	-2.001942 
276.500000	-2.012497 
277.000000	-1.848454 
277.500000	-1.738206 
278.000000	-1.501401 
278.500000	-1.226087 
279.000000	-0.700852 
279.500000	-0.334717 
280.000000	-0.337227 
280.500000	-0.496248 
281.000000	-0.462043 
281.500000	-0.221105 
282.000000	-0.244106 
282.500000	-0.466482 
283.000000	-0.359169 
283.500000	0.079176  
284.000000	0.557397  
284.500000	0.457110  
285.000000	0.226058  
285.500000	-0.062510 
286.000000	-0.341748 
286.500000	-0.810123 
287.000000	-1.411291 
287.500000	-1.952462 
288.000000	-2.175756 
288.500000	-2.022974 
289.000000	-1.950263 
289.500000	-1.831177 
290.000000	-1.523799 
290.500000	-1.088531 
291.000000	-0.754471 
291.500000	-0.389834 
292.000000	-0.418486 
292.500000	-0.588748 
293.000000	-0.908033 
293.500000	-1.294185 
294.000000	-1.763063 
294.500000	-1.961972 
295.000000	-1.768280 
295.500000	-1.458601 
296.000000	-0.541554 
296.500000	0.543597  
297.000000	1.699450  
297.500000	2.833753  
298.000000	4.157181  
298.500000	5.112799  
299.000000	5.785039  
299.500000	6.778467  
300.000000	7.297279  
300.500000	8.071789  
301.000000	9.116784  
301.500000	10.452578 
302.000000	11.821655 
302.500000	13.458750 
303.000000	15.103465 
303.500000	16.510484 
304.000000	18.423321 
304.500000	19.481829 
305.000000	20.154637 
305.500000	20.714056 
306.000000	21.352475 
306.500000	21.732171 
307.000000	21.937192 
307.500000	22.147267 
308.000000	22.427635 
308.500000	23.145163 
309.000000	23.605928 
309.500000	23.938502 
310.000000	24.347396 
310.500000	24.975132 
311.000000	25.630023 
311.500000	25.780647 
312.000000	26.016094 
312.500000	26.382297 
313.000000	26.853311 
313.500000	27.479915 
314.000000	28.020081 
314.500000	28.484595 
315.000000	29.125901 
315.500000	30.104314 
316.000000	30.478643 
316.500000	30.929400 
317.000000	31.149308 
317.500000	30.982491 
318.000000	30.945540 
318.500000	30.813658 
319.000000	30.421386 
319.500000	30.038582 
320.000000	29.931096 
320.500000	29.501018 
321.000000	29.103578 
321.500000	28.322518 
322.000000	27.257114 
322.500000	26.298136 
323.000000	25.350289 
323.500000	24.211435 
324.000000	23.234290 
324.500000	22.363807 
325.000000	21.739557 
325.500000	21.395585 
326.000000	20.912663 
326.500000	20.380215 
327.000000	19.790725 
327.500000	19.092974 
328.000000	18.267792 
328.500000	17.668198 
329.000000	17.016676 
329.500000	16.581134 
330.000000	16.323966 
330.500000	16.050750 
331.000000	15.861351 
331.500000	15.664905 
332.000000	15.490444 
332.500000	15.079535 
333.000000	14.549166 
333.500000	14.018556 
334.000000	13.541528 
334.500000	13.242681 
335.000000	13.052357 
335.500000	12.888227 
336.000000	12.690703 
336.500000	12.642180 
337.000000	12.502747 
337.500000	12.114674 
338.000000	11.761882 
338.500000	11.499371 
339.000000	11.344568 
339.500000	11.272037 
340.000000	11.237939 
340.500000	11.210277 
341.000000	11.265550 
341.500000	11.407374 
342.000000	11.455937 
342.500000	11.427836 
343.000000	11.419762 
343.500000	11.378956 
344.000000	11.192256 
344.500000	10.910130 
345.000000	10.598570 
345.500000	10.202204 
346.000000	9.806881  
346.500000	9.466540  
347.000000	9.111797  
347.500000	8.991308  
348.000000	9.054937  
348.500000	9.116605  
349.000000	9.158816  
349.500000	9.331674  
350.000000	9.575898  
350.500000	9.867053  
351.000000	10.106187 
351.500000	10.228453 
352.000000	10.414855 
352.500000	10.608883 
353.000000	10.703022 
353.500000	10.645761 
354.000000	10.593554 
354.500000	10.662441 
355.000000	10.898860 
355.500000	11.100718 
356.000000	11.228584 
356.500000	11.392244 
357.000000	11.476747 
357.500000	11.434459 
358.000000	11.311221 
358.500000	11.096720 
359.000000	10.995417 
359.500000	10.978704 
360.000000	11.054387 
360.500000	11.212857 
361.000000	11.534547 
361.500000	11.944842 
362.000000	12.307734 
362.500000	12.655817 
363.000000	12.838514 
363.500000	13.082084 
364.000000	13.281627 
364.500000	13.386372 
365.000000	13.407736 
365.500000	13.356242 
366.000000	13.395251 
366.500000	13.600044 
367.000000	13.936397 
367.500000	14.230327 
368.000000	14.611445 
368.500000	15.055092 
369.000000	15.335954 
369.500000	15.481821 
370.000000	15.378049 
370.500000	15.141179 
371.000000	14.960276 
371.500000	14.797802 
372.000000	14.549432 
372.500000	14.365644 
373.000000	14.386644 
373.500000	14.362059 
374.000000	14.409784 
374.500000	14.398396 
375.000000	14.368639 
375.500000	14.443335 
376.000000	14.573294 
376.500000	14.670715 
377.000000	14.889010 
377.500000	15.289613 
378.000000	15.634460 
378.500000	15.950353 
379.000000	16.150355 
379.500000	16.254793 
380.000000	16.203793 
380.500000	16.070950 
381.000000	15.841590 
381.500000	15.571029 
382.000000	15.364939 
382.500000	15.171798 
383.000000	15.060316 
383.500000	15.098506 
384.000000	15.174447 
384.500000	15.101938 
385.000000	14.959262 
385.500000	14.874818 
386.000000	14.765728 
386.500000	14.672189 
387.000000	14.544984 
387.500000	14.283408 
388.000000	14.136268 
388.500000	14.110685 
389.000000	14.064360 
389.500000	14.015453 
390.000000	14.005035 
390.500000	14.003905 
391.000000	14.047738 
391.500000	14.168034 
392.000000	14.150169 
392.500000	14.019545 
393.000000	13.894778 
393.500000	13.756915 
394.000000	13.650806 
394.500000	13.544747 
395.000000	13.390056 
395.500000	13.229356 
396.000000	13.134053 
396.500000	12.959430 
397.000000	12.672105 
397.500000	12.349874 
398.000000	12.006969 
398.500000	11.744690 
399.000000	11.589461 
399.500000	11.539889 
400.000000	11.570056 
400.500000	11.709693 
401.000000	11.929485 
401.500000	12.181048 
402.000000	12.427333 
402.500000	12.572424 
403.000000	12.638118 
403.500000	12.609562 
404.000000	12.530382 
404.500000	12.369301 
405.000000	12.148521 
405.500000	11.927259 
406.000000	11.805604 
406.500000	11.791564 
407.000000	11.748417 
407.500000	11.706749 
408.000000	11.688801 
408.500000	11.727613 
409.000000	11.707936 
409.500000	11.638980 
410.000000	11.517186 
410.500000	11.392869 
411.000000	11.346789 
411.500000	11.267103 
412.000000	11.142932 
412.500000	11.088992 
413.000000	11.070383 
413.500000	10.996855 
414.000000	10.991402 
414.500000	10.916669 
415.000000	10.816267 
415.500000	10.714640 
416.000000	10.540521 
416.500000	10.239917 
417.000000	10.005309 
417.500000	9.796555  
418.000000	9.522137  
418.500000	9.335279  
419.000000	9.152230  
419.500000	9.052737  
420.000000	9.002702  
420.500000	9.000730  
421.000000	8.953609  
421.500000	8.984879  
422.000000	9.041805  
422.500000	9.057462  
423.000000	8.992722  
423.500000	8.823953  
424.000000	8.638466  
424.500000	8.442926  
425.000000	8.258250  
425.500000	8.116397  
426.000000	8.037862  
426.500000	8.025070  
427.000000	8.078904  
427.500000	8.069785  
428.000000	8.004845  
428.500000	7.884615  
429.000000	7.696544  
429.500000	7.427874  
430.000000	7.178043  
430.500000	6.949800  
431.000000	6.774985  
431.500000	6.757221  
432.000000	6.760246  
432.500000	6.812144  
433.000000	6.869034  
433.500000	6.922294  
434.000000	6.904546  
434.500000	6.852219  
435.000000	6.729613  
435.500000	6.565436  
436.000000	6.470144  
436.500000	6.364368  
437.000000	6.312426  
437.500000	6.285041  
438.000000	6.284770  
438.500000	6.296532  
439.000000	6.318668  
439.500000	6.285579  
440.000000	6.190073  
440.500000	6.131360  
441.000000	6.096862  
441.500000	6.098998  
442.000000	6.084338  
442.500000	6.117967  
443.000000	6.180717  
443.500000	6.276019  
444.000000	6.330735  
444.500000	6.308691  

