PE FL                   SPECTRUM    ASCII       PEDS        1.60        
  -1
PP907B~1
23/10/10
15:24:02.00
23/10/10
15:24:02.00


444.500000
1









LS55
15.00
5.00
5.00
SCAN
1
20
100
100
0
500
0
2
0
1
7
ON
500 450 
1 0 0
#HDR
-1
-1
#GR
NM

0.00002384185791015625
0.0
250.000000
0.500000
390
8
5.698000
-4.403283
#DATA
250.000000	5.698000  
250.500000	3.047483  
251.000000	0.595831  
251.500000	-1.187492 
252.000000	-2.501901 
252.500000	-3.283323 
253.000000	-3.600601 
253.500000	-3.632668 
254.000000	-3.711602 
254.500000	-3.650057 
255.000000	-3.549170 
255.500000	-3.530444 
256.000000	-3.409031 
256.500000	-3.266867 
257.000000	-3.289352 
257.500000	-3.351855 
258.000000	-3.326820 
258.500000	-3.127146 
259.000000	-2.580128 
259.500000	-1.740559 
260.000000	-0.810407 
260.500000	0.233200  
261.000000	1.313430  
261.500000	1.562432  
262.000000	1.205904  
262.500000	0.538973  
263.000000	-0.174591 
263.500000	-0.852367 
264.000000	-1.422090 
264.500000	-1.769615 
265.000000	-1.739462 
265.500000	-1.248074 
266.000000	-1.347705 
266.500000	-1.980350 
267.000000	-2.844705 
267.500000	-3.560701 
268.000000	-4.079105 
268.500000	-4.403283 
269.000000	-4.400151 
269.500000	-3.958109 
270.000000	-3.045210 
270.500000	-2.336573 
271.000000	-1.693672 
271.500000	-1.460435 
272.000000	-1.414187 
272.500000	-1.288142 
273.000000	-1.139245 
273.500000	-1.027591 
274.000000	-0.916768 
274.500000	-0.770063 
275.000000	-0.904046 
275.500000	-0.409410 
276.000000	0.022926  
276.500000	0.285983  
277.000000	0.498773  
277.500000	0.800154  
278.000000	0.958544  
278.500000	1.066261  
279.000000	0.971340  
279.500000	0.122659  
280.000000	-0.466089 
280.500000	-0.959554 
281.000000	-1.555103 
281.500000	-2.361185 
282.000000	-3.154994 
282.500000	-3.710252 
283.000000	-3.823010 
283.500000	-3.727632 
284.000000	-3.829145 
284.500000	-3.561623 
285.000000	-3.145613 
285.500000	-2.346664 
286.000000	-1.643348 
286.500000	-1.405361 
287.000000	-1.337380 
287.500000	-1.166596 
288.000000	-1.011488 
288.500000	-0.900991 
289.000000	-0.741496 
289.500000	-0.783275 
290.000000	-0.559561 
290.500000	-0.046984 
291.000000	0.155546  
291.500000	0.096588  
292.000000	0.000464  
292.500000	-0.099252 
293.000000	-0.211596 
293.500000	-0.408010 
294.000000	-1.089357 
294.500000	-1.908140 
295.000000	-2.537483 
295.500000	-2.904472 
296.000000	-3.173890 
296.500000	-3.231941 
297.000000	-2.928922 
297.500000	-2.302106 
298.000000	-1.483539 
298.500000	-0.838077 
299.000000	-0.654956 
299.500000	-0.914815 
300.000000	-1.428138 
300.500000	-2.086112 
301.000000	-2.621073 
301.500000	-2.859950 
302.000000	-2.877901 
302.500000	-2.504627 
303.000000	-1.936406 
303.500000	-1.377778 
304.000000	-0.828239 
304.500000	-0.432157 
305.000000	-0.216759 
305.500000	-0.284992 
306.000000	-0.237038 
306.500000	-0.401100 
307.000000	-0.519706 
307.500000	-0.606346 
308.000000	-0.787398 
308.500000	-0.898299 
309.000000	-0.911069 
309.500000	-0.812341 
310.000000	-0.801992 
310.500000	-0.564418 
311.000000	-0.429986 
311.500000	-0.218599 
312.000000	0.117963  
312.500000	0.419372  
313.000000	0.730200  
313.500000	1.122148  
314.000000	1.718515  
314.500000	2.413344  
315.000000	3.182450  
315.500000	3.524675  
316.000000	3.504875  
316.500000	3.294578  
317.000000	2.781260  
317.500000	2.090142  
318.000000	1.165836  
318.500000	0.319292  
319.000000	-0.179721 
319.500000	-0.224251 
320.000000	-0.044675 
320.500000	0.443966  
321.000000	1.189693  
321.500000	1.852228  
322.000000	2.425748  
322.500000	2.692917  
323.000000	2.699758  
323.500000	2.542860  
324.000000	2.431703  
324.500000	2.197429  
325.000000	2.094463  
325.500000	2.014988  
326.000000	1.998389  
326.500000	2.020013  
327.000000	2.113705  
327.500000	2.215134  
328.000000	2.119473  
328.500000	2.038458  
329.000000	2.023014  
329.500000	2.180679  
330.000000	2.290784  
330.500000	2.417614  
331.000000	2.451811  
331.500000	2.535606  
332.000000	2.565027  
332.500000	2.382557  
333.000000	1.914487  
333.500000	1.512812  
334.000000	1.213961  
334.500000	0.971562  
335.000000	0.823467  
335.500000	0.650402  
336.000000	0.617634  
336.500000	0.704171  
337.000000	0.871967  
337.500000	0.858236  
338.000000	0.818617  
338.500000	0.799674  
339.000000	0.920516  
339.500000	1.127659  
340.000000	1.266696  
340.500000	1.417407  
341.000000	1.595648  
341.500000	1.733224  
342.000000	1.739334  
342.500000	1.650902  
343.000000	1.534013  
343.500000	1.473780  
344.000000	1.475043  
344.500000	1.409479  
345.000000	1.390857  
345.500000	1.454179  
346.000000	1.470825  
346.500000	1.417020  
347.000000	1.270750  
347.500000	1.070569  
348.000000	0.904002  
348.500000	0.736542  
349.000000	0.546944  
349.500000	0.457157  
350.000000	0.521859  
350.500000	0.730609  
351.000000	0.952412  
351.500000	1.190015  
352.000000	1.455216  
352.500000	1.690242  
353.000000	1.883443  
353.500000	1.966271  
354.000000	1.953797  
354.500000	1.878251  
355.000000	1.792628  
355.500000	1.667807  
356.000000	1.511974  
356.500000	1.384361  
357.000000	1.369538  
357.500000	1.405421  
358.000000	1.456992  
358.500000	1.434009  
359.000000	1.427031  
359.500000	1.401480  
360.000000	1.355746  
360.500000	1.326150  
361.000000	1.297333  
361.500000	1.414842  
362.000000	1.584375  
362.500000	1.793256  
363.000000	1.958413  
363.500000	2.124144  
364.000000	2.204202  
364.500000	2.200299  
365.000000	2.094260  
365.500000	1.879736  
366.000000	1.758875  
366.500000	1.659129  
367.000000	1.537035  
367.500000	1.443371  
368.000000	1.461044  
368.500000	1.557636  
369.000000	1.725111  
369.500000	1.869894  
370.000000	2.019435  
370.500000	2.176829  
371.000000	2.341178  
371.500000	2.406435  
372.000000	2.393680  
372.500000	2.361525  
373.000000	2.324017  
373.500000	2.340786  
374.000000	2.318246  
374.500000	2.363660  
375.000000	2.314903  
375.500000	2.236544  
376.000000	2.109627  
376.500000	1.940130  
377.000000	1.767862  
377.500000	1.610623  
378.000000	1.481952  
378.500000	1.354561  
379.000000	1.413618  
379.500000	1.500888  
380.000000	1.539467  
380.500000	1.602852  
381.000000	1.638450  
381.500000	1.693048  
382.000000	1.757588  
382.500000	1.808421  
383.000000	1.766699  
383.500000	1.738305  
384.000000	1.719646  
384.500000	1.637180  
385.000000	1.561436  
385.500000	1.463006  
386.000000	1.405078  
386.500000	1.432132  
387.000000	1.506993  
387.500000	1.571512  
388.000000	1.563213  
388.500000	1.573127  
389.000000	1.530637  
389.500000	1.452177  
390.000000	1.359140  
390.500000	1.276737  
391.000000	1.269977  
391.500000	1.310293  
392.000000	1.399304  
392.500000	1.503281  
393.000000	1.636354  
393.500000	1.721833  
394.000000	1.722724  
394.500000	1.684564  
395.000000	1.616885  
395.500000	1.578520  
396.000000	1.543959  
396.500000	1.491003  
397.000000	1.489508  
397.500000	1.537642  
398.000000	1.613054  
398.500000	1.638215  
399.000000	1.619744  
399.500000	1.568056  
400.000000	1.508300  
400.500000	1.421960  
401.000000	1.303922  
401.500000	1.263911  
402.000000	1.226185  
402.500000	1.238046  
403.000000	1.278913  
403.500000	1.305029  
404.000000	1.316225  
404.500000	1.357982  
405.000000	1.407388  
405.500000	1.457893  
406.000000	1.586540  
406.500000	1.690621  
407.000000	1.763557  
407.500000	1.833314  
408.000000	1.868064  
408.500000	1.847165  
409.000000	1.835547  
409.500000	1.775543  
410.000000	1.689926  
410.500000	1.682501  
411.000000	1.715652  
411.500000	1.719909  
412.000000	1.745406  
412.500000	1.743236  
413.000000	1.720370  
413.500000	1.718735  
414.000000	1.682017  
414.500000	1.565043  
415.000000	1.480099  
415.500000	1.441942  
416.000000	1.422415  
416.500000	1.433592  
417.000000	1.430448  
417.500000	1.457430  
418.000000	1.498796  
418.500000	1.544519  
419.000000	1.490626  
419.500000	1.411541  
420.000000	1.303389  
420.500000	1.200251  
421.000000	1.132448  
421.500000	1.087379  
422.000000	1.112191  
422.500000	1.176016  
423.000000	1.281595  
423.500000	1.356779  
424.000000	1.414817  
424.500000	1.431433  
425.000000	1.401838  
425.500000	1.339776  
426.000000	1.275236  
426.500000	1.232725  
427.000000	1.204215  
427.500000	1.193397  
428.000000	1.169684  
428.500000	1.140500  
429.000000	1.124474  
429.500000	1.115300  
430.000000	1.105319  
430.500000	1.107871  
431.000000	1.128845  
431.500000	1.171843  
432.000000	1.222097  
432.500000	1.251465  
433.000000	1.253142  
433.500000	1.259583  
434.000000	1.266352  
434.500000	1.262228  
435.000000	1.243500  
435.500000	1.231009  
436.000000	1.222886  
436.500000	1.212003  
437.000000	1.179625  
437.500000	1.138191  
438.000000	1.102604  
438.500000	1.078439  
439.000000	1.074003  
439.500000	1.067971  
440.000000	1.061842  
440.500000	1.069542  
441.000000	1.105277  
441.500000	1.135141  
442.000000	1.169860  
442.500000	1.208114  
443.000000	1.241192  
443.500000	1.283028  
444.000000	1.314743  
444.500000	1.332856  

