PE FL                   SPECTRUM    ASCII       PEDS        1.60        
  -1
PP90AB~1
23/10/10
15:26:03.00
23/10/10
15:26:03.00


444.500000
1









LS55
30.00
5.00
5.00
SCAN
1
20
100
100
0
500
0
2
0
1
7
ON
500 450 
1 0 0
#HDR
-1
-1
#GR
NM

0.00002384185791015625
0.0
250.000000
0.500000
390
8
6.545802
-5.000000
#DATA
250.000000	-5.000000 
250.500000	-4.113142 
251.000000	-3.369685 
251.500000	-2.800785 
252.000000	-2.426044 
252.500000	-2.779509 
253.000000	-3.120918 
253.500000	-3.440243 
254.000000	-3.778681 
254.500000	-3.734124 
255.000000	-3.163996 
255.500000	-2.153691 
256.000000	-1.140722 
256.500000	0.116903  
257.000000	0.765678  
257.500000	0.882878  
258.000000	0.602194  
258.500000	-0.133626 
259.000000	-0.987127 
259.500000	-1.676219 
260.000000	-2.170513 
260.500000	-2.542881 
261.000000	-2.578526 
261.500000	-2.427561 
262.000000	-2.386029 
262.500000	-2.581747 
263.000000	-2.852170 
263.500000	-3.237842 
264.000000	-3.456285 
264.500000	-3.564290 
265.000000	-3.678229 
265.500000	-3.912303 
266.000000	-4.006963 
266.500000	-4.121286 
267.000000	-4.266892 
267.500000	-4.288944 
268.000000	-4.424686 
268.500000	-4.328893 
269.000000	-4.107186 
269.500000	-3.822680 
270.000000	-3.679078 
270.500000	-3.564873 
271.000000	-3.439537 
271.500000	-3.341854 
272.000000	-2.997805 
272.500000	-2.799352 
273.000000	-2.605767 
273.500000	-2.238336 
274.000000	-1.985194 
274.500000	-1.825333 
275.000000	-1.809915 
275.500000	-1.991969 
276.000000	-2.444553 
276.500000	-2.799297 
277.000000	-3.122183 
277.500000	-3.358887 
278.000000	-3.313457 
278.500000	-3.148126 
279.000000	-2.881216 
279.500000	-2.457264 
280.000000	-2.017675 
280.500000	-1.788146 
281.000000	-1.636382 
281.500000	-1.684852 
282.000000	-1.801596 
282.500000	-2.014804 
283.000000	-2.109135 
283.500000	-2.215119 
284.000000	-2.031841 
284.500000	-2.020355 
285.000000	-1.740249 
285.500000	-1.424780 
286.000000	-1.270937 
286.500000	-1.053780 
287.000000	-1.007103 
287.500000	-0.825988 
288.000000	-0.886068 
288.500000	-0.740226 
289.000000	-0.718012 
289.500000	-0.469232 
290.000000	-0.214570 
290.500000	-0.253906 
291.000000	-0.198415 
291.500000	-0.226725 
292.000000	-0.210219 
292.500000	-0.323552 
293.000000	-0.289865 
293.500000	-0.312636 
294.000000	-0.426022 
294.500000	-0.619034 
295.000000	-0.896223 
295.500000	-0.995724 
296.000000	-0.969075 
296.500000	-1.104488 
297.000000	-1.227985 
297.500000	-1.303455 
298.000000	-1.225879 
298.500000	-1.387980 
299.000000	-1.545347 
299.500000	-1.461945 
300.000000	-1.024314 
300.500000	-0.217872 
301.000000	0.376734  
301.500000	1.123088  
302.000000	2.107685  
302.500000	2.857625  
303.000000	3.173550  
303.500000	3.111516  
304.000000	3.219478  
304.500000	3.411872  
305.000000	3.848197  
305.500000	4.103504  
306.000000	4.384550  
306.500000	4.869442  
307.000000	4.878347  
307.500000	4.803106  
308.000000	4.608377  
308.500000	4.575562  
309.000000	4.744519  
309.500000	5.162353  
310.000000	5.601841  
310.500000	6.039325  
311.000000	6.504472  
311.500000	6.545802  
312.000000	6.377285  
312.500000	5.925355  
313.000000	5.264444  
313.500000	4.792433  
314.000000	4.606935  
314.500000	4.657697  
315.000000	4.932072  
315.500000	5.141011  
316.000000	5.252878  
316.500000	5.358075  
317.000000	5.233542  
317.500000	4.770826  
318.000000	4.407092  
318.500000	4.251313  
319.000000	4.295275  
319.500000	4.600018  
320.000000	4.891512  
320.500000	5.320870  
321.000000	5.754896  
321.500000	5.859559  
322.000000	5.504893  
322.500000	4.861978  
323.000000	4.184982  
323.500000	3.529703  
324.000000	2.999524  
324.500000	2.525354  
325.000000	2.359831  
325.500000	2.458618  
326.000000	2.618021  
326.500000	2.822147  
327.000000	2.980760  
327.500000	3.083894  
328.000000	3.193088  
328.500000	3.217400  
329.000000	3.037632  
329.500000	3.022679  
330.000000	2.982448  
330.500000	2.879581  
331.000000	2.787496  
331.500000	2.668273  
332.000000	2.526844  
332.500000	2.474271  
333.000000	2.388096  
333.500000	2.195913  
334.000000	2.218383  
334.500000	2.247800  
335.000000	2.157886  
335.500000	1.969413  
336.000000	1.718527  
336.500000	1.360227  
337.000000	1.124520  
337.500000	0.897975  
338.000000	0.688623  
338.500000	0.617324  
339.000000	0.663009  
339.500000	0.754211  
340.000000	0.841179  
340.500000	0.911909  
341.000000	0.839666  
341.500000	0.818671  
342.000000	0.768734  
342.500000	0.755166  
343.000000	0.774256  
343.500000	0.804168  
344.000000	0.827443  
344.500000	0.871453  
345.000000	1.000498  
345.500000	1.079240  
346.000000	1.172144  
346.500000	1.201576  
347.000000	1.160496  
347.500000	1.109130  
348.000000	1.035876  
348.500000	0.913904  
349.000000	0.823937  
349.500000	0.790085  
350.000000	0.853288  
350.500000	1.107022  
351.000000	1.467843  
351.500000	1.767045  
352.000000	2.008538  
352.500000	2.075982  
353.000000	1.913605  
353.500000	1.643114  
354.000000	1.263567  
354.500000	0.791585  
355.000000	0.503237  
355.500000	0.424742  
356.000000	0.541349  
356.500000	0.764154  
357.000000	1.011617  
357.500000	1.209681  
358.000000	1.387198  
358.500000	1.561724  
359.000000	1.554306  
359.500000	1.459886  
360.000000	1.346832  
360.500000	1.261834  
361.000000	1.204759  
361.500000	1.131789  
362.000000	1.050248  
362.500000	0.906208  
363.000000	0.889706  
363.500000	0.920009  
364.000000	0.901936  
364.500000	0.991837  
365.000000	1.111597  
365.500000	1.229749  
366.000000	1.273486  
366.500000	1.247292  
367.000000	1.077575  
367.500000	0.958607  
368.000000	0.915593  
368.500000	0.798920  
369.000000	0.816098  
369.500000	0.918728  
370.000000	1.074112  
370.500000	1.238300  
371.000000	1.334174  
371.500000	1.358372  
372.000000	1.352445  
372.500000	1.326304  
373.000000	1.261743  
373.500000	1.242528  
374.000000	1.296693  
374.500000	1.361230  
375.000000	1.487507  
375.500000	1.595242  
376.000000	1.735215  
376.500000	1.839263  
377.000000	1.872956  
377.500000	1.891284  
378.000000	1.953474  
378.500000	2.042154  
379.000000	2.065839  
379.500000	2.045467  
380.000000	1.993521  
380.500000	1.982246  
381.000000	1.921885  
381.500000	1.805354  
382.000000	1.626362  
382.500000	1.491304  
383.000000	1.374570  
383.500000	1.276620  
384.000000	1.118792  
384.500000	0.989274  
385.000000	0.915862  
385.500000	0.899752  
386.000000	0.991193  
386.500000	1.104336  
387.000000	1.225765  
387.500000	1.366981  
388.000000	1.516033  
388.500000	1.629957  
389.000000	1.730821  
389.500000	1.744631  
390.000000	1.667939  
390.500000	1.606352  
391.000000	1.530591  
391.500000	1.434481  
392.000000	1.356010  
392.500000	1.294084  
393.000000	1.279924  
393.500000	1.325737  
394.000000	1.368110  
394.500000	1.354084  
395.000000	1.400733  
395.500000	1.397400  
396.000000	1.353850  
396.500000	1.292151  
397.000000	1.230259  
397.500000	1.207908  
398.000000	1.232887  
398.500000	1.285805  
399.000000	1.310635  
399.500000	1.399219  
400.000000	1.448808  
400.500000	1.448040  
401.000000	1.370517  
401.500000	1.289039  
402.000000	1.243628  
402.500000	1.223349  
403.000000	1.225964  
403.500000	1.224467  
404.000000	1.253757  
404.500000	1.302024  
405.000000	1.336992  
405.500000	1.328345  
406.000000	1.273075  
406.500000	1.221721  
407.000000	1.181306  
407.500000	1.157743  
408.000000	1.164921  
408.500000	1.175335  
409.000000	1.245820  
409.500000	1.316876  
410.000000	1.431996  
410.500000	1.511260  
411.000000	1.559430  
411.500000	1.587951  
412.000000	1.603849  
412.500000	1.622760  
413.000000	1.589457  
413.500000	1.571159  
414.000000	1.482224  
414.500000	1.412058  
415.000000	1.368350  
415.500000	1.317206  
416.000000	1.261283  
416.500000	1.225672  
417.000000	1.256825  
417.500000	1.249942  
418.000000	1.264512  
418.500000	1.247572  
419.000000	1.206987  
419.500000	1.200615  
420.000000	1.174428  
420.500000	1.146079  
421.000000	1.136811  
421.500000	1.209632  
422.000000	1.272633  
422.500000	1.310970  
423.000000	1.347490  
423.500000	1.324192  
424.000000	1.299523  
424.500000	1.232057  
425.000000	1.130582  
425.500000	1.023204  
426.000000	0.987230  
426.500000	0.997733  
427.000000	0.999507  
427.500000	1.025894  
428.000000	1.042286  
428.500000	1.071717  
429.000000	1.082054  
429.500000	1.093227  
430.000000	1.079275  
430.500000	1.046249  
431.000000	1.020754  
431.500000	0.970286  
432.000000	0.915301  
432.500000	0.845422  
433.000000	0.786713  
433.500000	0.733494  
434.000000	0.724460  
434.500000	0.749519  
435.000000	0.795169  
435.500000	0.868276  
436.000000	0.931743  
436.500000	0.974936  
437.000000	1.002230  
437.500000	1.006188  
438.000000	0.971530  
438.500000	0.938487  
439.000000	0.927466  
439.500000	0.930850  
440.000000	0.960290  
440.500000	1.001733  
441.000000	1.028689  
441.500000	1.047481  
442.000000	1.054330  
442.500000	1.039452  
443.000000	1.023168  
443.500000	1.002317  
444.000000	0.979998  
444.500000	0.980046  

