PE FL                   SPECTRUM    ASCII       PEDS        1.60        
  -1
PP90BB~1
23/10/10
15:26:44.00
23/10/10
15:26:44.00


444.500000
1









LS55
35.00
5.00
5.00
SCAN
1
20
100
100
0
500
0
2
0
1
7
ON
500 450 
1 0 0
#HDR
-1
-1
#GR
NM

0.00002384185791015625
0.0
250.000000
0.500000
390
8
5.890000
-4.713431
#DATA
250.000000	5.890000  
250.500000	2.389554  
251.000000	-0.584296 
251.500000	-2.569259 
252.000000	-3.692683 
252.500000	-3.783931 
253.000000	-3.291009 
253.500000	-2.453672 
254.000000	-1.633071 
254.500000	-1.664419 
255.000000	-1.866462 
255.500000	-2.238496 
256.000000	-2.279544 
256.500000	-2.264675 
257.000000	-1.930504 
257.500000	-1.430201 
258.000000	-0.819458 
258.500000	-0.136144 
259.000000	-0.368620 
259.500000	-0.896731 
260.000000	-1.746235 
260.500000	-2.717399 
261.000000	-3.614728 
261.500000	-4.279531 
262.000000	-4.633153 
262.500000	-4.519406 
263.000000	-3.825015 
263.500000	-3.233801 
264.000000	-2.630258 
264.500000	-2.119612 
265.000000	-1.921972 
265.500000	-1.742657 
266.000000	-1.793638 
266.500000	-2.017313 
267.000000	-2.300358 
267.500000	-2.739288 
268.000000	-2.961001 
268.500000	-2.874117 
269.000000	-2.670748 
269.500000	-2.411515 
270.000000	-2.124860 
270.500000	-1.781386 
271.000000	-1.509655 
271.500000	-1.345930 
272.000000	-1.396068 
272.500000	-1.500870 
273.000000	-1.501443 
273.500000	-1.701942 
274.000000	-1.824194 
274.500000	-2.222642 
275.000000	-2.714064 
275.500000	-3.140025 
276.000000	-3.560034 
276.500000	-4.171583 
277.000000	-4.687106 
277.500000	-4.713431 
278.000000	-4.450719 
278.500000	-3.813935 
279.000000	-3.222424 
279.500000	-2.704510 
280.000000	-2.207532 
280.500000	-1.883357 
281.000000	-2.247740 
281.500000	-2.989342 
282.000000	-3.516697 
282.500000	-3.707901 
283.000000	-3.750303 
283.500000	-3.272691 
284.000000	-2.489531 
284.500000	-1.209940 
285.000000	0.490186  
285.500000	1.529852  
286.000000	1.922031  
286.500000	1.892294  
287.000000	1.654429  
287.500000	1.057657  
288.000000	0.247225  
288.500000	-0.539886 
289.000000	-0.897550 
289.500000	-0.668220 
290.000000	-0.495130 
290.500000	-0.336172 
291.000000	-0.188265 
291.500000	-0.095695 
292.000000	-0.206696 
292.500000	-0.680177 
293.000000	-1.237487 
293.500000	-1.512488 
294.000000	-1.416715 
294.500000	-1.013681 
295.000000	-0.393843 
295.500000	0.399025  
296.000000	1.013640  
296.500000	1.638181  
297.000000	1.654198  
297.500000	1.475863  
298.000000	1.263618  
298.500000	0.878011  
299.000000	0.748450  
299.500000	0.676242  
300.000000	0.957804  
300.500000	1.326489  
301.000000	1.735648  
301.500000	1.591302  
302.000000	1.337187  
302.500000	1.238708  
303.000000	1.107165  
303.500000	1.151054  
304.000000	1.357101  
304.500000	1.977659  
305.000000	2.521741  
305.500000	3.223629  
306.000000	3.597813  
306.500000	3.879558  
307.000000	4.037118  
307.500000	4.292045  
308.000000	4.536775  
308.500000	4.670722  
309.000000	5.027150  
309.500000	5.198607  
310.000000	5.375927  
310.500000	5.466616  
311.000000	5.523426  
311.500000	5.293206  
312.000000	5.063171  
312.500000	4.953598  
313.000000	4.905717  
313.500000	5.109173  
314.000000	5.150445  
314.500000	5.244020  
315.000000	5.301836  
315.500000	5.425764  
316.000000	5.469321  
316.500000	5.261260  
317.000000	5.040644  
317.500000	4.720384  
318.000000	4.430488  
318.500000	4.027931  
319.000000	3.826709  
319.500000	3.758972  
320.000000	3.755572  
320.500000	4.049968  
321.000000	4.150439  
321.500000	4.063600  
322.000000	3.870201  
322.500000	3.732797  
323.000000	3.514851  
323.500000	3.355291  
324.000000	3.202761  
324.500000	3.138934  
325.000000	3.399735  
325.500000	3.687396  
326.000000	3.831992  
326.500000	3.828716  
327.000000	3.836506  
327.500000	3.867777  
328.000000	3.756183  
328.500000	3.546677  
329.000000	3.293037  
329.500000	3.114768  
330.000000	3.233515  
330.500000	3.461239  
331.000000	3.701131  
331.500000	3.947837  
332.000000	4.203421  
332.500000	4.449978  
333.000000	4.778484  
333.500000	4.954056  
334.000000	4.722612  
334.500000	4.561692  
335.000000	4.398221  
335.500000	4.161937  
336.000000	3.853694  
336.500000	3.345658  
337.000000	2.853886  
337.500000	2.483228  
338.000000	2.151808  
338.500000	1.719414  
339.000000	1.607251  
339.500000	1.658082  
340.000000	1.860453  
340.500000	2.202562  
341.000000	2.416796  
341.500000	2.709999  
342.000000	2.836514  
342.500000	2.798577  
343.000000	2.612183  
343.500000	2.538681  
344.000000	2.513143  
344.500000	2.497234  
345.000000	2.408692  
345.500000	2.260650  
346.000000	2.340626  
346.500000	2.351410  
347.000000	2.305019  
347.500000	2.279723  
348.000000	2.302550  
348.500000	2.304317  
349.000000	2.260574  
349.500000	2.108324  
350.000000	1.752884  
350.500000	1.300669  
351.000000	0.826087  
351.500000	0.374649  
352.000000	0.062179  
352.500000	-0.126573 
353.000000	-0.139665 
353.500000	0.040060  
354.000000	0.425708  
354.500000	0.878008  
355.000000	1.196913  
355.500000	1.468868  
356.000000	1.644720  
356.500000	1.742621  
357.000000	1.740141  
357.500000	1.545400  
358.000000	1.262736  
358.500000	1.081319  
359.000000	1.061135  
359.500000	1.037406  
360.000000	1.127838  
360.500000	1.305289  
361.000000	1.530861  
361.500000	1.766045  
362.000000	1.923469  
362.500000	2.012354  
363.000000	2.022184  
363.500000	2.048516  
364.000000	2.058863  
364.500000	2.172005  
365.000000	2.210939  
365.500000	2.219579  
366.000000	2.297438  
366.500000	2.342281  
367.000000	2.409458  
367.500000	2.425076  
368.000000	2.335850  
368.500000	2.079409  
369.000000	1.887669  
369.500000	1.642686  
370.000000	1.362578  
370.500000	1.091331  
371.000000	0.908702  
371.500000	0.923839  
372.000000	1.107187  
372.500000	1.394842  
373.000000	1.645425  
373.500000	1.914477  
374.000000	2.103328  
374.500000	2.237908  
375.000000	2.171969  
375.500000	1.983957  
376.000000	1.763594  
376.500000	1.564559  
377.000000	1.426221  
377.500000	1.330833  
378.000000	1.227400  
378.500000	1.138512  
379.000000	1.208077  
379.500000	1.222502  
380.000000	1.248818  
380.500000	1.299209  
381.000000	1.345689  
381.500000	1.423091  
382.000000	1.592533  
382.500000	1.720659  
383.000000	1.755200  
383.500000	1.806000  
384.000000	1.760511  
384.500000	1.598537  
385.000000	1.423797  
385.500000	1.187434  
386.000000	0.976998  
386.500000	0.898616  
387.000000	0.942088  
387.500000	1.048916  
388.000000	1.207065  
388.500000	1.400566  
389.000000	1.535795  
389.500000	1.668746  
390.000000	1.742946  
390.500000	1.749530  
391.000000	1.736528  
391.500000	1.738787  
392.000000	1.692338  
392.500000	1.640202  
393.000000	1.621594  
393.500000	1.586210  
394.000000	1.570989  
394.500000	1.586539  
395.000000	1.622342  
395.500000	1.659528  
396.000000	1.725971  
396.500000	1.765436  
397.000000	1.767852  
397.500000	1.776850  
398.000000	1.777093  
398.500000	1.741815  
399.000000	1.640134  
399.500000	1.518429  
400.000000	1.389453  
400.500000	1.273034  
401.000000	1.160280  
401.500000	1.000440  
402.000000	0.863179  
402.500000	0.812135  
403.000000	0.855935  
403.500000	0.934395  
404.000000	1.078529  
404.500000	1.253255  
405.000000	1.422990  
405.500000	1.558919  
406.000000	1.585574  
406.500000	1.503997  
407.000000	1.385451  
407.500000	1.248442  
408.000000	1.097632  
408.500000	1.010127  
409.000000	0.981342  
409.500000	1.042445  
410.000000	1.126676  
410.500000	1.254835  
411.000000	1.383002  
411.500000	1.490184  
412.000000	1.550274  
412.500000	1.548467  
413.000000	1.558196  
413.500000	1.560818  
414.000000	1.562143  
414.500000	1.474487  
415.000000	1.369748  
415.500000	1.285431  
416.000000	1.228123  
416.500000	1.184649  
417.000000	1.156419  
417.500000	1.158041  
418.000000	1.199327  
418.500000	1.271834  
419.000000	1.284893  
419.500000	1.266514  
420.000000	1.251847  
420.500000	1.233575  
421.000000	1.187016  
421.500000	1.168824  
422.000000	1.159633  
422.500000	1.193120  
423.000000	1.254059  
423.500000	1.300938  
424.000000	1.322158  
424.500000	1.338247  
425.000000	1.337800  
425.500000	1.287289  
426.000000	1.238822  
426.500000	1.174638  
427.000000	1.129061  
427.500000	1.098461  
428.000000	1.067323  
428.500000	1.031335  
429.000000	1.018244  
429.500000	1.027357  
430.000000	1.028273  
430.500000	1.046815  
431.000000	1.054945  
431.500000	1.066706  
432.000000	1.071331  
432.500000	1.045645  
433.000000	0.999006  
433.500000	0.941941  
434.000000	0.883755  
434.500000	0.846036  
435.000000	0.858156  
435.500000	0.894442  
436.000000	0.958720  
436.500000	1.030041  
437.000000	1.071727  
437.500000	1.091791  
438.000000	1.087684  
438.500000	1.054055  
439.000000	1.017155  
439.500000	1.016963  
440.000000	1.053572  
440.500000	1.110833  
441.000000	1.170300  
441.500000	1.201377  
442.000000	1.194025  
442.500000	1.150872  
443.000000	1.079111  
443.500000	1.004883  
444.000000	0.949803  
444.500000	0.939940  

