PE FL                   SPECTRUM    ASCII       PEDS        1.60        
  -1
PP905B~1
23/10/10
15:22:41.00
23/10/10
15:22:41.00


444.500000
1









LS55
5.00
5.00
5.00
SCAN
1
20
100
100
0
500
0
2
0
1
7
ON
500 450 
1 0 0
#HDR
-1
-1
#GR
NM

0.00002384185791015625
0.0
250.000000
0.500000
390
8
55.034390
-4.466323
#DATA
250.000000	-3.713000 
250.500000	-2.193816 
251.000000	-0.785375 
251.500000	-0.469264 
252.000000	-0.562947 
252.500000	-0.775427 
253.000000	-1.495386 
253.500000	-2.119211 
254.000000	-2.194433 
254.500000	-2.173813 
255.000000	-1.866279 
255.500000	-1.397522 
256.000000	-1.715472 
256.500000	-2.298667 
257.000000	-2.771300 
257.500000	-3.468340 
258.000000	-3.971661 
258.500000	-4.190935 
259.000000	-4.433508 
259.500000	-4.466323 
260.000000	-4.319939 
260.500000	-4.334178 
261.000000	-4.256942 
261.500000	-3.935602 
262.000000	-3.704330 
262.500000	-3.413667 
263.000000	-3.099299 
263.500000	-2.919547 
264.000000	-2.920858 
264.500000	-3.189776 
265.000000	-3.590794 
265.500000	-4.089792 
266.000000	-4.227625 
266.500000	-4.144248 
267.000000	-3.650285 
267.500000	-2.808958 
268.000000	-1.842300 
268.500000	-0.961961 
269.000000	-0.589581 
269.500000	-0.571637 
270.000000	-1.092683 
270.500000	-1.696307 
271.000000	-2.485533 
271.500000	-3.195543 
272.000000	-3.592064 
272.500000	-3.692402 
273.000000	-3.515142 
273.500000	-3.494848 
274.000000	-3.251054 
274.500000	-3.246665 
275.000000	-3.232230 
275.500000	-3.232473 
276.000000	-3.274004 
276.500000	-3.211319 
277.000000	-3.236243 
277.500000	-3.004134 
278.000000	-2.980724 
278.500000	-2.916476 
279.000000	-3.052453 
279.500000	-3.129145 
280.000000	-3.045869 
280.500000	-3.063972 
281.000000	-2.886677 
281.500000	-2.785476 
282.000000	-2.581352 
282.500000	-2.383879 
283.000000	-2.168204 
283.500000	-2.055566 
284.000000	-1.754290 
284.500000	-0.956954 
285.000000	-0.082003 
285.500000	0.965035  
286.000000	1.863605  
286.500000	2.266425  
287.000000	2.261492  
287.500000	1.733900  
288.000000	0.619495  
288.500000	-0.666633 
289.000000	-1.511528 
289.500000	-2.110611 
290.000000	-2.219753 
290.500000	-1.595993 
291.000000	-0.884062 
291.500000	-0.177579 
292.000000	0.258677  
292.500000	0.342146  
293.000000	-0.089986 
293.500000	-0.583876 
294.000000	-1.054885 
294.500000	-1.339446 
295.000000	-1.261095 
295.500000	-1.002700 
296.000000	-0.761866 
296.500000	-0.593145 
297.000000	-0.462959 
297.500000	-0.554032 
298.000000	-1.022135 
298.500000	-1.518016 
299.000000	-2.013608 
299.500000	-2.252750 
300.000000	-2.151062 
300.500000	-2.026263 
301.000000	-1.780470 
301.500000	-1.406657 
302.000000	-1.013059 
302.500000	-1.099952 
303.000000	-1.265749 
303.500000	-1.611217 
304.000000	-1.822769 
304.500000	-1.894885 
305.000000	-1.939883 
305.500000	-1.809519 
306.000000	-1.591412 
306.500000	-1.202880 
307.000000	-0.895431 
307.500000	-0.518883 
308.000000	-0.439516 
308.500000	-0.186648 
309.000000	-0.125138 
309.500000	-0.019215 
310.000000	0.148700  
310.500000	0.275620  
311.000000	0.308897  
311.500000	0.373705  
312.000000	0.546581  
312.500000	0.538719  
313.000000	0.716648  
313.500000	0.739368  
314.000000	0.933839  
314.500000	1.080157  
315.000000	1.370944  
315.500000	1.803206  
316.000000	2.583346  
316.500000	3.773742  
317.000000	4.976855  
317.500000	6.312280  
318.000000	7.508506  
318.500000	8.550824  
319.000000	9.147494  
319.500000	9.439494  
320.000000	9.455480  
320.500000	9.470885  
321.000000	9.692287  
321.500000	9.950116  
322.000000	10.249567 
322.500000	10.654542 
323.000000	10.956027 
323.500000	10.943917 
324.000000	10.832899 
324.500000	10.410128 
325.000000	10.059351 
325.500000	9.867074  
326.000000	9.837685  
326.500000	10.010161 
327.000000	10.391557 
327.500000	10.756210 
328.000000	11.022466 
328.500000	11.356459 
329.000000	11.529066 
329.500000	11.713961 
330.000000	11.898976 
330.500000	12.090588 
331.000000	12.344810 
331.500000	12.623720 
332.000000	12.905926 
332.500000	13.026977 
333.000000	13.201717 
333.500000	13.302726 
334.000000	13.311603 
334.500000	13.238659 
335.000000	13.284061 
335.500000	13.458820 
336.000000	13.843953 
336.500000	14.465351 
337.000000	15.103074 
337.500000	15.946961 
338.000000	16.911793 
338.500000	17.824042 
339.000000	18.513668 
339.500000	18.883679 
340.000000	18.968212 
340.500000	18.990710 
341.000000	18.879461 
341.500000	18.468698 
342.000000	18.180268 
342.500000	18.039936 
343.000000	17.970458 
343.500000	17.958290 
344.000000	17.808830 
344.500000	17.722603 
345.000000	18.107157 
345.500000	18.647834 
346.000000	19.213567 
346.500000	20.007162 
347.000000	20.871549 
347.500000	21.802147 
348.000000	22.812259 
348.500000	23.363879 
349.000000	23.693893 
349.500000	24.127494 
350.000000	24.531220 
350.500000	24.967793 
351.000000	25.645715 
351.500000	26.459122 
352.000000	27.429144 
352.500000	28.546022 
353.000000	29.387547 
353.500000	30.063082 
354.000000	30.704813 
354.500000	31.622090 
355.000000	33.035520 
355.500000	35.161923 
356.000000	37.692962 
356.500000	40.494707 
357.000000	43.510689 
357.500000	46.386537 
358.000000	48.887199 
358.500000	50.422399 
359.000000	51.184217 
359.500000	51.301215 
360.000000	51.443059 
360.500000	51.521028 
361.000000	51.511585 
361.500000	51.654936 
362.000000	52.174526 
362.500000	53.124305 
363.000000	53.739427 
363.500000	54.033211 
364.000000	53.894641 
364.500000	53.959663 
365.000000	53.807717 
365.500000	53.414691 
366.000000	52.844911 
366.500000	52.363916 
367.000000	52.344051 
367.500000	52.096052 
368.000000	51.722499 
368.500000	50.946223 
369.000000	50.162513 
369.500000	49.360740 
370.000000	48.637057 
370.500000	47.983834 
371.000000	47.567733 
371.500000	47.604677 
372.000000	47.678920 
372.500000	47.842685 
373.000000	48.024384 
373.500000	48.006098 
374.000000	48.162070 
374.500000	48.612916 
375.000000	49.263638 
375.500000	50.147650 
376.000000	51.193547 
376.500000	52.206471 
377.000000	53.118020 
377.500000	53.710629 
378.000000	53.643470 
378.500000	53.289884 
379.000000	52.713487 
379.500000	51.725914 
380.000000	50.883508 
380.500000	50.372798 
381.000000	50.105038 
381.500000	49.928994 
382.000000	49.735494 
382.500000	49.649016 
383.000000	49.662948 
383.500000	49.598772 
384.000000	49.001469 
384.500000	48.006863 
385.000000	46.943070 
385.500000	45.795705 
386.000000	44.580952 
386.500000	42.967711 
387.000000	41.373797 
387.500000	39.962328 
388.000000	38.808698 
388.500000	37.580035 
389.000000	36.175906 
389.500000	34.735668 
390.000000	33.199520 
390.500000	31.736688 
391.000000	30.034788 
391.500000	28.209637 
392.000000	26.349150 
392.500000	24.625750 
393.000000	23.243556 
393.500000	22.229684 
394.000000	21.495350 
394.500000	20.788258 
395.000000	20.411487 
395.500000	20.160314 
396.000000	19.980224 
396.500000	19.756073 
397.000000	19.527068 
397.500000	19.229094 
398.000000	18.862579 
398.500000	18.542380 
399.000000	18.003904 
399.500000	17.378168 
400.000000	16.712830 
400.500000	16.091902 
401.000000	15.546077 
401.500000	15.149447 
402.000000	14.861607 
402.500000	14.713111 
403.000000	14.659254 
403.500000	14.605875 
404.000000	14.524234 
404.500000	14.365823 
405.000000	14.032324 
405.500000	13.640455 
406.000000	13.110695 
406.500000	12.513101 
407.000000	11.971959 
407.500000	11.492056 
408.000000	11.051301 
408.500000	10.705698 
409.000000	10.530921 
409.500000	10.399825 
410.000000	10.429055 
410.500000	10.420325 
411.000000	10.280728 
411.500000	10.114538 
412.000000	10.017211 
412.500000	9.972792  
413.000000	9.934252  
413.500000	9.954800  
414.000000	10.004879 
414.500000	10.216274 
415.000000	10.477942 
415.500000	10.763417 
416.000000	10.986342 
416.500000	11.293598 
417.000000	11.675431 
417.500000	12.135637 
418.000000	12.597539 
418.500000	13.037872 
419.000000	13.398031 
419.500000	13.651130 
420.000000	13.934799 
420.500000	14.112433 
421.000000	14.208957 
421.500000	14.264260 
422.000000	14.499760 
422.500000	14.794275 
423.000000	15.231303 
423.500000	15.746719 
424.000000	16.219969 
424.500000	16.866416 
425.000000	17.626631 
425.500000	18.357830 
426.000000	18.904452 
426.500000	19.383728 
427.000000	19.712131 
427.500000	20.022731 
428.000000	20.329087 
428.500000	20.488236 
429.000000	20.717275 
429.500000	21.098703 
430.000000	21.701082 
430.500000	22.571787 
431.000000	23.776885 
431.500000	25.215689 
432.000000	26.937733 
432.500000	29.201175 
433.000000	31.593496 
433.500000	33.920002 
434.000000	36.109691 
434.500000	38.118890 
435.000000	39.946242 
435.500000	41.510545 
436.000000	42.637212 
436.500000	43.235469 
437.000000	43.833185 
437.500000	44.164277 
438.000000	44.283273 
438.500000	44.304592 
439.000000	44.235591 
439.500000	44.314142 
440.000000	44.957074 
440.500000	45.890361 
441.000000	46.945512 
441.500000	48.437560 
442.000000	49.946841 
442.500000	51.443903 
443.000000	52.904966 
443.500000	53.941955 
444.000000	54.470771 
444.500000	55.034390 

