PE FL                   SPECTRUM    ASCII       PEDS        1.60        
  -1
PP40A3~1
23/10/10
16:23:51.00
23/10/10
16:23:51.00


444.500000
1









LS55
45.00
5.00
5.00
SCAN
1
20
100
100
0
500
0
2
0
1
7
ON
500 450 
1 0 0
#HDR
-1
-1
#GR
NM

0.00002384185791015625
0.0
250.000000
0.500000
390
8
11.852504
-4.518417
#DATA
250.000000	-1.409000 
250.500000	-0.672999 
251.000000	0.068208  
251.500000	0.551399  
252.000000	0.654661  
252.500000	0.263742  
253.000000	-0.308583 
253.500000	-1.174080 
254.000000	-1.905713 
254.500000	-2.340591 
255.000000	-2.524328 
255.500000	-2.175793 
256.000000	-1.624370 
256.500000	-0.995759 
257.000000	-0.461642 
257.500000	-0.245586 
258.000000	-0.587888 
258.500000	-1.371058 
259.000000	-2.379629 
259.500000	-3.287077 
260.000000	-3.946006 
260.500000	-4.267946 
261.000000	-4.362427 
261.500000	-4.002941 
262.000000	-3.482343 
262.500000	-3.050393 
263.000000	-2.733739 
263.500000	-2.854118 
264.000000	-3.098017 
264.500000	-3.484800 
265.000000	-3.778956 
265.500000	-4.295455 
266.000000	-4.518417 
266.500000	-4.484887 
267.000000	-4.186848 
267.500000	-3.453786 
268.000000	-2.746312 
268.500000	-1.977546 
269.000000	-1.486527 
269.500000	-0.879611 
270.000000	-1.051339 
270.500000	-1.210976 
271.000000	-1.459215 
271.500000	-1.726653 
272.000000	-1.889318 
272.500000	-1.861427 
273.000000	-1.597778 
273.500000	-1.560583 
274.000000	-1.257698 
274.500000	-1.509049 
275.000000	-1.610872 
275.500000	-1.973193 
276.000000	-2.219130 
276.500000	-2.439295 
277.000000	-2.360587 
277.500000	-1.943169 
278.000000	-1.635006 
278.500000	-1.258874 
279.000000	-1.384515 
279.500000	-1.333080 
280.000000	-1.731915 
280.500000	-2.145312 
281.000000	-2.968247 
281.500000	-3.554494 
282.000000	-3.853690 
282.500000	-3.847307 
283.000000	-3.593523 
283.500000	-3.470019 
284.000000	-3.161560 
284.500000	-2.959798 
285.000000	-2.571788 
285.500000	-2.462935 
286.000000	-2.243460 
286.500000	-2.142197 
287.000000	-1.840565 
287.500000	-1.360807 
288.000000	-1.103897 
288.500000	-1.250157 
289.000000	-1.811470 
289.500000	-2.126320 
290.000000	-2.631145 
290.500000	-2.836276 
291.000000	-3.064665 
291.500000	-3.130794 
292.000000	-2.700816 
292.500000	-2.032150 
293.000000	-1.305465 
293.500000	-0.895435 
294.000000	-0.405032 
294.500000	-0.286868 
295.000000	-0.190788 
295.500000	-0.447972 
296.000000	-1.112515 
296.500000	-1.571025 
297.000000	-2.085660 
297.500000	-2.244171 
298.000000	-2.254963 
298.500000	-1.733720 
299.000000	-0.977436 
299.500000	0.020212  
300.000000	0.860756  
300.500000	1.214072  
301.000000	1.487365  
301.500000	1.362194  
302.000000	1.201780  
302.500000	0.981386  
303.000000	0.935844  
303.500000	1.021402  
304.000000	1.337239  
304.500000	1.451134  
305.000000	1.283990  
305.500000	0.981933  
306.000000	0.367391  
306.500000	-0.279877 
307.000000	-0.868260 
307.500000	-1.261604 
308.000000	-1.438592 
308.500000	-1.234979 
309.000000	-0.904491 
309.500000	-0.479347 
310.000000	-0.161434 
310.500000	0.073943  
311.000000	0.201248  
311.500000	0.551012  
312.000000	1.119473  
312.500000	1.952299  
313.000000	3.183207  
313.500000	4.600006  
314.000000	6.148627  
314.500000	7.352412  
315.000000	8.327871  
315.500000	8.834695  
316.000000	9.024915  
316.500000	8.836845  
317.000000	8.579191  
317.500000	8.465108  
318.000000	8.535113  
318.500000	8.801654  
319.000000	8.705930  
319.500000	8.608012  
320.000000	8.392544  
320.500000	8.167055  
321.000000	7.850098  
321.500000	7.457816  
322.000000	7.249083  
322.500000	7.308455  
323.000000	7.519414  
323.500000	7.459733  
324.000000	7.235968  
324.500000	6.921621  
325.000000	6.517602  
325.500000	6.132450  
326.000000	5.709850  
326.500000	5.402147  
327.000000	5.360019  
327.500000	5.586603  
328.000000	5.822609  
328.500000	6.153222  
329.000000	6.613470  
329.500000	7.023709  
330.000000	7.498971  
330.500000	7.955538  
331.000000	8.352391  
331.500000	8.577025  
332.000000	8.719558  
332.500000	8.548179  
333.000000	8.223286  
333.500000	8.031143  
334.000000	7.836722  
334.500000	7.705771  
335.000000	7.769587  
335.500000	8.120103  
336.000000	8.480451  
336.500000	8.951859  
337.000000	9.264565  
337.500000	9.472240  
338.000000	9.578524  
338.500000	9.520928  
339.000000	9.330494  
339.500000	9.027346  
340.000000	8.831969  
340.500000	8.588504  
341.000000	8.522761  
341.500000	8.481407  
342.000000	8.530102  
342.500000	8.626073  
343.000000	8.757217  
343.500000	8.914981  
344.000000	8.965189  
344.500000	9.056420  
345.000000	9.098750  
345.500000	9.280053  
346.000000	9.443037  
346.500000	9.618563  
347.000000	9.802635  
347.500000	9.814972  
348.000000	9.742565  
348.500000	9.528799  
349.000000	9.278636  
349.500000	8.964184  
350.000000	8.791395  
350.500000	8.746661  
351.000000	8.758487  
351.500000	8.899977  
352.000000	8.994683  
352.500000	9.049691  
353.000000	9.101058  
353.500000	9.199152  
354.000000	9.272033  
354.500000	9.357056  
355.000000	9.435577  
355.500000	9.459010  
356.000000	9.548338  
356.500000	9.554888  
357.000000	9.466937  
357.500000	9.268100  
358.000000	9.219671  
358.500000	9.280581  
359.000000	9.430662  
359.500000	9.611244  
360.000000	9.839681  
360.500000	10.107226 
361.000000	10.365830 
361.500000	10.591023 
362.000000	10.617346 
362.500000	10.578253 
363.000000	10.565811 
363.500000	10.510938 
364.000000	10.504591 
364.500000	10.566503 
365.000000	10.660657 
365.500000	10.757996 
366.000000	10.935630 
366.500000	11.084673 
367.000000	11.058447 
367.500000	11.038229 
368.000000	10.871825 
368.500000	10.721926 
369.000000	10.651574 
369.500000	10.594370 
370.000000	10.517825 
370.500000	10.582228 
371.000000	10.879320 
371.500000	11.138213 
372.000000	11.441035 
372.500000	11.494201 
373.000000	11.519594 
373.500000	11.521209 
374.000000	11.446833 
374.500000	11.152243 
375.000000	10.913569 
375.500000	10.761459 
376.000000	10.735606 
376.500000	10.899877 
377.000000	11.038029 
377.500000	11.236817 
378.000000	11.522841 
378.500000	11.778571 
379.000000	11.830559 
379.500000	11.852504 
380.000000	11.736258 
380.500000	11.675962 
381.000000	11.730406 
381.500000	11.726356 
382.000000	11.689057 
382.500000	11.694966 
383.000000	11.739366 
383.500000	11.661993 
384.000000	11.540170 
384.500000	11.316259 
385.000000	11.116442 
385.500000	10.971395 
386.000000	10.862318 
386.500000	10.736287 
387.000000	10.670455 
387.500000	10.752442 
388.000000	10.888449 
388.500000	10.987643 
389.000000	11.030737 
389.500000	11.099607 
390.000000	11.215135 
390.500000	11.275933 
391.000000	11.205556 
391.500000	11.009561 
392.000000	10.906726 
392.500000	10.835709 
393.000000	10.656195 
393.500000	10.367506 
394.000000	10.128445 
394.500000	9.949508  
395.000000	9.802974  
395.500000	9.680503  
396.000000	9.552492  
396.500000	9.547746  
397.000000	9.581999  
397.500000	9.622948  
398.000000	9.642246  
398.500000	9.721908  
399.000000	9.745189  
399.500000	9.692181  
400.000000	9.568399  
400.500000	9.341329  
401.000000	9.062946  
401.500000	8.631038  
402.000000	8.149480  
402.500000	7.698264  
403.000000	7.417623  
403.500000	7.280435  
404.000000	7.302926  
404.500000	7.480467  
405.000000	7.763309  
405.500000	8.125505  
406.000000	8.311986  
406.500000	8.371312  
407.000000	8.354436  
407.500000	8.290607  
408.000000	8.162284  
408.500000	8.054477  
409.000000	8.028232  
409.500000	8.030515  
410.000000	8.082297  
410.500000	8.043660  
411.000000	7.896896  
411.500000	7.746604  
412.000000	7.606367  
412.500000	7.464900  
413.000000	7.336159  
413.500000	7.280215  
414.000000	7.239722  
414.500000	7.339791  
415.000000	7.430223  
415.500000	7.415218  
416.000000	7.372488  
416.500000	7.341373  
417.000000	7.249694  
417.500000	7.104492  
418.000000	6.956823  
418.500000	6.766001  
419.000000	6.675620  
419.500000	6.643052  
420.000000	6.583445  
420.500000	6.552358  
421.000000	6.561835  
421.500000	6.569758  
422.000000	6.582865  
422.500000	6.611161  
423.000000	6.573076  
423.500000	6.556128  
424.000000	6.553420  
424.500000	6.525494  
425.000000	6.474098  
425.500000	6.440629  
426.000000	6.365650  
426.500000	6.255431  
427.000000	6.145481  
427.500000	6.036339  
428.000000	5.961706  
428.500000	5.963234  
429.000000	6.006536  
429.500000	6.070004  
430.000000	6.170816  
430.500000	6.286774  
431.000000	6.369308  
431.500000	6.372535  
432.000000	6.298375  
432.500000	6.169821  
433.000000	6.035367  
433.500000	5.901454  
434.000000	5.758713  
434.500000	5.633259  
435.000000	5.596874  
435.500000	5.630589  
436.000000	5.680418  
436.500000	5.738163  
437.000000	5.784188  
437.500000	5.860853  
438.000000	5.945057  
438.500000	6.003596  
439.000000	5.987532  
439.500000	5.984494  
440.000000	5.961850  
440.500000	5.900957  
441.000000	5.818741  
441.500000	5.687537  
442.000000	5.552019  
442.500000	5.438746  
443.000000	5.331034  
443.500000	5.226781  
444.000000	5.209233  
444.500000	5.210425  

