PE FL                   SPECTRUM    ASCII       PEDS        1.60        
  -1
PM404D~1
23/10/10
10:52:18.00
23/10/10
10:52:18.00


444.500000
1









LS55
30.00
5.00
5.00
SCAN
1
20
100
100
0
500
0
2
0
1
7
ON
500 450 
1 0 0
#HDR
-1
-1
#GR
NM

0.00002384185791015625
0.0
300.000000
0.500000
290
8
19.675159
-0.212695
#DATA
300.000000	2.580000  
300.500000	3.149311  
301.000000	3.863021  
301.500000	4.768060  
302.000000	5.892232  
302.500000	7.332160  
303.000000	8.548078  
303.500000	9.535765  
304.000000	10.240690 
304.500000	10.390490 
305.000000	10.180764 
305.500000	9.712722  
306.000000	9.173785  
306.500000	8.884333  
307.000000	8.933375  
307.500000	9.254972  
308.000000	10.027754 
308.500000	11.046706 
309.000000	11.979815 
309.500000	12.775590 
310.000000	13.192445 
310.500000	13.568987 
311.000000	14.018429 
311.500000	14.550431 
312.000000	14.977384 
312.500000	15.595067 
313.000000	16.378799 
313.500000	17.160957 
314.000000	17.899645 
314.500000	18.352038 
315.000000	18.600037 
315.500000	18.678209 
316.000000	18.733169 
316.500000	18.524164 
317.000000	18.442021 
317.500000	18.473378 
318.000000	18.628351 
318.500000	18.915214 
319.000000	19.196119 
319.500000	19.539100 
320.000000	19.612015 
320.500000	19.675159 
321.000000	19.387139 
321.500000	19.010079 
322.000000	18.616487 
322.500000	18.137203 
323.000000	17.603719 
323.500000	17.053286 
324.000000	16.629540 
324.500000	16.287750 
325.000000	15.910427 
325.500000	15.470167 
326.000000	15.013196 
326.500000	14.552295 
327.000000	14.128583 
327.500000	13.737699 
328.000000	13.378465 
328.500000	12.970003 
329.000000	12.765003 
329.500000	12.406001 
330.000000	12.016406 
330.500000	11.548952 
331.000000	11.043112 
331.500000	10.543312 
332.000000	9.999163  
332.500000	9.596369  
333.000000	9.025021  
333.500000	8.609546  
334.000000	8.060076  
334.500000	7.533446  
335.000000	7.012999  
335.500000	6.402890  
336.000000	5.772484  
336.500000	5.171654  
337.000000	4.691354  
337.500000	4.086573  
338.000000	3.538655  
338.500000	2.965761  
339.000000	2.403816  
339.500000	1.994144  
340.000000	1.636644  
340.500000	1.364022  
341.000000	1.278817  
341.500000	1.324259  
342.000000	1.337353  
342.500000	1.295408  
343.000000	1.227380  
343.500000	1.030979  
344.000000	0.912142  
344.500000	0.742667  
345.000000	0.611148  
345.500000	0.651312  
346.000000	0.766463  
346.500000	0.826759  
347.000000	0.932009  
347.500000	1.069832  
348.000000	1.176875  
348.500000	1.216051  
349.000000	1.164537  
349.500000	1.109597  
350.000000	1.064477  
350.500000	1.040997  
351.000000	0.891875  
351.500000	0.743324  
352.000000	0.621638  
352.500000	0.579198  
353.000000	0.510024  
353.500000	0.406786  
354.000000	0.254968  
354.500000	0.097122  
355.000000	0.068075  
355.500000	0.026013  
356.000000	0.033017  
356.500000	0.048154  
357.000000	0.127817  
357.500000	0.100421  
358.000000	0.077360  
358.500000	0.058565  
359.000000	-0.043975 
359.500000	-0.115947 
360.000000	-0.144810 
360.500000	-0.097693 
361.000000	-0.026758 
361.500000	0.093263  
362.000000	0.092074  
362.500000	0.033360  
363.000000	0.022075  
363.500000	-0.039292 
364.000000	-0.140624 
364.500000	-0.212695 
365.000000	-0.172218 
365.500000	-0.052919 
366.000000	0.181670  
366.500000	0.331170  
367.000000	0.399030  
367.500000	0.494727  
368.000000	0.573214  
368.500000	0.555709  
369.000000	0.487820  
369.500000	0.426648  
370.000000	0.381657  
370.500000	0.374638  
371.000000	0.314594  
371.500000	0.254392  
372.000000	0.186786  
372.500000	0.208770  
373.000000	0.255291  
373.500000	0.287530  
374.000000	0.261005  
374.500000	0.270797  
375.000000	0.355276  
375.500000	0.394916  
376.000000	0.453664  
376.500000	0.391156  
377.000000	0.422206  
377.500000	0.499114  
378.000000	0.544941  
378.500000	0.499989  
379.000000	0.499593  
379.500000	0.571224  
380.000000	0.594118  
380.500000	0.635907  
381.000000	0.524422  
381.500000	0.476445  
382.000000	0.457965  
382.500000	0.378904  
383.000000	0.250402  
383.500000	0.197432  
384.000000	0.285181  
384.500000	0.360387  
385.000000	0.523600  
385.500000	0.663000  
386.000000	0.876903  
386.500000	1.175653  
387.000000	1.330927  
387.500000	1.388770  
388.000000	1.404066  
388.500000	1.435337  
389.000000	1.355709  
389.500000	1.243967  
390.000000	1.091961  
390.500000	0.897491  
391.000000	0.839076  
391.500000	0.770207  
392.000000	0.725729  
392.500000	0.713806  
393.000000	0.737265  
393.500000	0.747095  
394.000000	0.749988  
394.500000	0.701827  
395.000000	0.567282  
395.500000	0.493657  
396.000000	0.430332  
396.500000	0.402423  
397.000000	0.328118  
397.500000	0.276067  
398.000000	0.294504  
398.500000	0.388403  
399.000000	0.502034  
399.500000	0.586003  
400.000000	0.700499  
400.500000	0.828601  
401.000000	0.989789  
401.500000	1.031934  
402.000000	1.021417  
402.500000	0.947869  
403.000000	0.843174  
403.500000	0.702018  
404.000000	0.524805  
404.500000	0.407469  
405.000000	0.320601  
405.500000	0.316705  
406.000000	0.316323  
406.500000	0.370033  
407.000000	0.462741  
407.500000	0.532614  
408.000000	0.603224  
408.500000	0.635915  
409.000000	0.719086  
409.500000	0.788175  
410.000000	0.812460  
410.500000	0.816681  
411.000000	0.820672  
411.500000	0.852079  
412.000000	0.865048  
412.500000	0.850037  
413.000000	0.814328  
413.500000	0.807248  
414.000000	0.814999  
414.500000	0.813227  
415.000000	0.809969  
415.500000	0.799521  
416.000000	0.804704  
416.500000	0.805251  
417.000000	0.775924  
417.500000	0.760720  
418.000000	0.746245  
418.500000	0.740904  
419.000000	0.752875  
419.500000	0.761350  
420.000000	0.777346  
420.500000	0.771790  
421.000000	0.758763  
421.500000	0.699400  
422.000000	0.631180  
422.500000	0.565013  
423.000000	0.509762  
423.500000	0.495406  
424.000000	0.490968  
424.500000	0.519699  
425.000000	0.582103  
425.500000	0.658188  
426.000000	0.721927  
426.500000	0.756100  
427.000000	0.764626  
427.500000	0.773698  
428.000000	0.794827  
428.500000	0.801244  
429.000000	0.805403  
429.500000	0.809118  
430.000000	0.811958  
430.500000	0.807466  
431.000000	0.787960  
431.500000	0.737701  
432.000000	0.708745  
432.500000	0.706305  
433.000000	0.715049  
433.500000	0.738619  
434.000000	0.772143  
434.500000	0.805146  
435.000000	0.828697  
435.500000	0.850916  
436.000000	0.824930  
436.500000	0.783131  
437.000000	0.725816  
437.500000	0.664998  
438.000000	0.620849  
438.500000	0.605786  
439.000000	0.624238  
439.500000	0.675772  
440.000000	0.766806  
440.500000	0.854353  
441.000000	0.939016  
441.500000	0.989671  
442.000000	1.010988  
442.500000	0.991027  
443.000000	0.945443  
443.500000	0.880103  
444.000000	0.802239  
444.500000	0.741229  

