PE FL                   SPECTRUM    ASCII       PEDS        1.60        
  -1
PM402D~1
23/10/10
10:51:09.00
23/10/10
10:51:09.00


444.500000
1









LS55
20.00
5.00
5.00
SCAN
1
20
100
100
0
500
0
2
0
1
7
ON
500 450 
1 0 0
#HDR
-1
-1
#GR
NM

0.00002384185791015625
0.0
300.000000
0.500000
290
8
12.106849
-2.973000
#DATA
300.000000	-2.973000 
300.500000	-2.104951 
301.000000	-1.287334 
301.500000	-0.498511 
302.000000	0.178176  
302.500000	0.424189  
303.000000	0.869210  
303.500000	1.397597  
304.000000	1.686559  
304.500000	1.951291  
305.000000	2.114293  
305.500000	2.040292  
306.000000	1.816212  
306.500000	1.632337  
307.000000	1.103163  
307.500000	0.589214  
308.000000	0.323796  
308.500000	0.010947  
309.000000	-0.019508 
309.500000	0.225872  
310.000000	0.401647  
310.500000	0.725018  
311.000000	1.525381  
311.500000	2.423877  
312.000000	3.129521  
312.500000	3.871709  
313.000000	4.434265  
313.500000	4.972108  
314.000000	5.653003  
314.500000	6.180733  
315.000000	6.720147  
315.500000	7.471541  
316.000000	8.433410  
316.500000	9.259256  
317.000000	9.941636  
317.500000	10.434896 
318.000000	10.661442 
318.500000	10.700429 
319.000000	10.696825 
319.500000	10.781046 
320.000000	10.925661 
320.500000	11.180904 
321.000000	11.433203 
321.500000	11.738841 
322.000000	12.087801 
322.500000	12.106849 
323.000000	11.826845 
323.500000	11.541803 
324.000000	11.457051 
324.500000	11.460211 
325.000000	11.551641 
325.500000	11.504552 
326.000000	11.490966 
326.500000	11.659599 
327.000000	11.805513 
327.500000	11.830128 
328.000000	11.792585 
328.500000	11.761678 
329.000000	11.551863 
329.500000	11.354261 
330.000000	10.809280 
330.500000	10.156851 
331.000000	9.353780  
331.500000	8.468935  
332.000000	7.611617  
332.500000	6.971747  
333.000000	6.614508  
333.500000	6.300014  
334.000000	6.296595  
334.500000	6.273247  
335.000000	6.218183  
335.500000	5.963668  
336.000000	5.527808  
336.500000	4.940936  
337.000000	4.454341  
337.500000	4.101080  
338.000000	3.759970  
338.500000	3.593306  
339.000000	3.406905  
339.500000	3.221626  
340.000000	3.009175  
340.500000	2.746938  
341.000000	2.416695  
341.500000	2.149254  
342.000000	2.043947  
342.500000	1.984161  
343.000000	2.013802  
343.500000	2.115231  
344.000000	2.067493  
344.500000	1.956941  
345.000000	1.798915  
345.500000	1.538323  
346.000000	1.294596  
346.500000	1.172006  
347.000000	1.150838  
347.500000	1.245623  
348.000000	1.385794  
348.500000	1.435375  
349.000000	1.442632  
349.500000	1.442001  
350.000000	1.289593  
350.500000	1.105412  
351.000000	0.974821  
351.500000	0.891758  
352.000000	0.870714  
352.500000	0.879866  
353.000000	0.817045  
353.500000	0.717432  
354.000000	0.617509  
354.500000	0.421679  
355.000000	0.285385  
355.500000	0.204180  
356.000000	0.236237  
356.500000	0.340440  
357.000000	0.461780  
357.500000	0.594226  
358.000000	0.713710  
358.500000	0.814932  
359.000000	0.840864  
359.500000	0.833174  
360.000000	0.762778  
360.500000	0.735276  
361.000000	0.672878  
361.500000	0.616107  
362.000000	0.566682  
362.500000	0.555949  
363.000000	0.596251  
363.500000	0.681037  
364.000000	0.865247  
364.500000	0.996222  
365.000000	1.120677  
365.500000	1.205093  
366.000000	1.255355  
366.500000	1.225685  
367.000000	1.102676  
367.500000	1.019748  
368.000000	0.956926  
368.500000	0.994526  
369.000000	0.975962  
369.500000	0.984746  
370.000000	1.007064  
370.500000	1.065830  
371.000000	1.139460  
371.500000	1.166422  
372.000000	1.265309  
372.500000	1.359825  
373.000000	1.493442  
373.500000	1.497924  
374.000000	1.477528  
374.500000	1.440701  
375.000000	1.354951  
375.500000	1.323471  
376.000000	1.289396  
376.500000	1.294483  
377.000000	1.369058  
377.500000	1.516193  
378.000000	1.568468  
378.500000	1.562679  
379.000000	1.533578  
379.500000	1.388788  
380.000000	1.247207  
380.500000	1.109378  
381.000000	1.000271  
381.500000	1.020283  
382.000000	1.214875  
382.500000	1.375992  
383.000000	1.514091  
383.500000	1.648217  
384.000000	1.680902  
384.500000	1.649493  
385.000000	1.514823  
385.500000	1.306124  
386.000000	1.162705  
386.500000	1.139500  
387.000000	1.095198  
387.500000	1.072515  
388.000000	1.070779  
388.500000	1.112070  
389.000000	1.190981  
389.500000	1.220461  
390.000000	1.220793  
390.500000	1.242295  
391.000000	1.280453  
391.500000	1.252457  
392.000000	1.169016  
392.500000	0.998571  
393.000000	0.810745  
393.500000	0.628867  
394.000000	0.468437  
394.500000	0.363956  
395.000000	0.355156  
395.500000	0.367525  
396.000000	0.433300  
396.500000	0.538608  
397.000000	0.638273  
397.500000	0.754151  
398.000000	0.840437  
398.500000	0.928743  
399.000000	1.036295  
399.500000	1.180399  
400.000000	1.300361  
400.500000	1.380469  
401.000000	1.411285  
401.500000	1.403958  
402.000000	1.407179  
402.500000	1.362718  
403.000000	1.291295  
403.500000	1.221862  
404.000000	1.191325  
404.500000	1.221901  
405.000000	1.250546  
405.500000	1.245225  
406.000000	1.229302  
406.500000	1.248187  
407.000000	1.253578  
407.500000	1.246230  
408.000000	1.227274  
408.500000	1.186022  
409.000000	1.161882  
409.500000	1.166160  
410.000000	1.136317  
410.500000	1.100754  
411.000000	1.056857  
411.500000	0.996946  
412.000000	0.937877  
412.500000	0.936500  
413.000000	0.953396  
413.500000	0.984925  
414.000000	1.054553  
414.500000	1.112135  
415.000000	1.175320  
415.500000	1.201482  
416.000000	1.193288  
416.500000	1.126096  
417.000000	1.070804  
417.500000	1.030214  
418.000000	1.005965  
418.500000	1.008851  
419.000000	1.015864  
419.500000	1.043657  
420.000000	1.089477  
420.500000	1.149198  
421.000000	1.184653  
421.500000	1.203733  
422.000000	1.188384  
422.500000	1.171962  
423.000000	1.148796  
423.500000	1.103966  
424.000000	1.041732  
424.500000	0.980662  
425.000000	0.923401  
425.500000	0.880260  
426.000000	0.853524  
426.500000	0.812124  
427.000000	0.784758  
427.500000	0.783193  
428.000000	0.790870  
428.500000	0.812046  
429.000000	0.849232  
429.500000	0.887627  
430.000000	0.940685  
430.500000	0.991725  
431.000000	1.014135  
431.500000	1.007380  
432.000000	0.997162  
432.500000	0.984051  
433.000000	0.981637  
433.500000	0.977723  
434.000000	0.972869  
434.500000	0.974185  
435.000000	0.968540  
435.500000	0.968088  
436.000000	0.965125  
436.500000	0.970977  
437.000000	0.986283  
437.500000	1.008217  
438.000000	1.042699  
438.500000	1.078059  
439.000000	1.106934  
439.500000	1.118233  
440.000000	1.130989  
440.500000	1.137179  
441.000000	1.127103  
441.500000	1.097152  
442.000000	1.033500  
442.500000	0.966275  
443.000000	0.896122  
443.500000	0.829893  
444.000000	0.780636  
444.500000	0.749645  

