PE FL                   SPECTRUM    ASCII       PEDS        1.60        
  -1
PM407D~1
23/10/10
10:54:00.00
23/10/10
10:54:00.00


444.500000
1









LS55
45.00
5.00
5.00
SCAN
1
20
100
100
0
500
0
2
0
1
7
ON
500 450 
1 0 0
#HDR
-1
-1
#GR
NM

0.00002384185791015625
0.0
300.000000
0.500000
290
8
24.228020
0.192603
#DATA
300.000000	20.560000 
300.500000	19.984949 
301.000000	19.555075 
301.500000	19.197125 
302.000000	19.060053 
302.500000	18.859218 
303.000000	18.877817 
303.500000	18.828472 
304.000000	18.852152 
304.500000	18.901583 
305.000000	19.066248 
305.500000	19.439337 
306.000000	19.864118 
306.500000	20.321562 
307.000000	20.726200 
307.500000	21.091795 
308.000000	21.519883 
308.500000	21.943176 
309.000000	22.438350 
309.500000	22.946415 
310.000000	23.461964 
310.500000	23.898353 
311.000000	24.228020 
311.500000	24.155371 
312.000000	23.569419 
312.500000	22.705999 
313.000000	21.599996 
313.500000	20.477117 
314.000000	19.375181 
314.500000	18.530487 
315.000000	18.015301 
315.500000	17.936799 
316.000000	18.095918 
316.500000	18.376620 
317.000000	18.729106 
317.500000	19.009608 
318.000000	19.022147 
318.500000	18.839985 
319.000000	18.467789 
319.500000	17.830567 
320.000000	17.164467 
320.500000	16.431956 
321.000000	15.852167 
321.500000	15.379133 
322.000000	15.168582 
322.500000	14.970638 
323.000000	14.850903 
323.500000	14.842030 
324.000000	14.792638 
324.500000	14.710720 
325.000000	14.609831 
325.500000	14.441152 
326.000000	14.184492 
326.500000	14.148740 
327.000000	13.942617 
327.500000	13.551113 
328.000000	13.019506 
328.500000	12.351385 
329.000000	11.703494 
329.500000	10.933275 
330.000000	10.052325 
330.500000	9.110077  
331.000000	8.449661  
331.500000	7.861547  
332.000000	7.273801  
332.500000	6.659811  
333.000000	6.177592  
333.500000	5.835506  
334.000000	5.502815  
334.500000	5.083187  
335.000000	4.624231  
335.500000	4.236802  
336.000000	3.845540  
336.500000	3.449816  
337.000000	2.949884  
337.500000	2.552648  
338.000000	2.305016  
338.500000	2.202326  
339.000000	2.143643  
339.500000	2.186346  
340.000000	2.142295  
340.500000	2.059472  
341.000000	1.908867  
341.500000	1.676142  
342.000000	1.531494  
342.500000	1.402547  
343.000000	1.401420  
343.500000	1.483830  
344.000000	1.763209  
344.500000	1.947040  
345.000000	2.164442  
345.500000	2.270458  
346.000000	2.310113  
346.500000	2.303177  
347.000000	2.222317  
347.500000	2.040891  
348.000000	1.848462  
348.500000	1.797417  
349.000000	1.637663  
349.500000	1.500685  
350.000000	1.245928  
350.500000	1.009820  
351.000000	0.739146  
351.500000	0.486883  
352.000000	0.263773  
352.500000	0.192603  
353.000000	0.353096  
353.500000	0.563020  
354.000000	0.828416  
354.500000	1.053163  
355.000000	1.353566  
355.500000	1.563159  
356.000000	1.733765  
356.500000	1.763265  
357.000000	1.841737  
357.500000	1.963416  
358.000000	2.077546  
358.500000	2.154403  
359.000000	2.114129  
359.500000	2.078485  
360.000000	1.955034  
360.500000	1.857516  
361.000000	1.762455  
361.500000	1.792868  
362.000000	1.960393  
362.500000	2.151922  
363.000000	2.401642  
363.500000	2.630688  
364.000000	2.839942  
364.500000	2.930168  
365.000000	3.010594  
365.500000	3.041877  
366.000000	3.025261  
366.500000	2.997236  
367.000000	2.859261  
367.500000	2.711645  
368.000000	2.525055  
368.500000	2.372472  
369.000000	2.228864  
369.500000	2.091109  
370.000000	2.024664  
370.500000	2.006010  
371.000000	2.057408  
371.500000	2.131863  
372.000000	2.184643  
372.500000	2.135132  
373.000000	2.044632  
373.500000	1.974734  
374.000000	1.905347  
374.500000	1.893309  
375.000000	1.884115  
375.500000	1.897510  
376.000000	2.003074  
376.500000	2.142849  
377.000000	2.183890  
377.500000	2.244425  
378.000000	2.288668  
378.500000	2.288756  
379.000000	2.294716  
379.500000	2.158696  
380.000000	1.954015  
380.500000	1.799508  
381.000000	1.680495  
381.500000	1.520135  
382.000000	1.477516  
382.500000	1.462903  
383.000000	1.465243  
383.500000	1.555932  
384.000000	1.639661  
384.500000	1.688281  
385.000000	1.664365  
385.500000	1.580058  
386.000000	1.392186  
386.500000	1.327051  
387.000000	1.257720  
387.500000	1.209006  
388.000000	1.168741  
388.500000	1.234814  
389.000000	1.346910  
389.500000	1.413442  
390.000000	1.374987  
390.500000	1.270669  
391.000000	1.213013  
391.500000	1.131476  
392.000000	1.079939  
392.500000	0.952796  
393.000000	0.879392  
393.500000	0.883215  
394.000000	0.910187  
394.500000	0.883114  
395.000000	0.840810  
395.500000	0.815997  
396.000000	0.770356  
396.500000	0.775319  
397.000000	0.778244  
397.500000	0.771865  
398.000000	0.793321  
398.500000	0.837311  
399.000000	0.837034  
399.500000	0.831181  
400.000000	0.772410  
400.500000	0.665251  
401.000000	0.580827  
401.500000	0.515320  
402.000000	0.478868  
402.500000	0.473553  
403.000000	0.489325  
403.500000	0.490463  
404.000000	0.512678  
404.500000	0.525113  
405.000000	0.492040  
405.500000	0.429790  
406.000000	0.351391  
406.500000	0.337187  
407.000000	0.378508  
407.500000	0.419462  
408.000000	0.448575  
408.500000	0.510222  
409.000000	0.580539  
409.500000	0.602699  
410.000000	0.567728  
410.500000	0.465046  
411.000000	0.402449  
411.500000	0.392700  
412.000000	0.379848  
412.500000	0.356667  
413.000000	0.345977  
413.500000	0.364673  
414.000000	0.397849  
414.500000	0.418506  
415.000000	0.415790  
415.500000	0.418012  
416.000000	0.448720  
416.500000	0.461971  
417.000000	0.443913  
417.500000	0.409319  
418.000000	0.362294  
418.500000	0.319035  
419.000000	0.286851  
419.500000	0.268155  
420.000000	0.261324  
420.500000	0.276828  
421.000000	0.309498  
421.500000	0.341420  
422.000000	0.370575  
422.500000	0.384159  
423.000000	0.386527  
423.500000	0.384196  
424.000000	0.400931  
424.500000	0.395987  
425.000000	0.388067  
425.500000	0.375488  
426.000000	0.367060  
426.500000	0.361476  
427.000000	0.353492  
427.500000	0.356894  
428.000000	0.367929  
428.500000	0.399782  
429.000000	0.419198  
429.500000	0.440275  
430.000000	0.448726  
430.500000	0.473298  
431.000000	0.498896  
431.500000	0.517206  
432.000000	0.541166  
432.500000	0.589533  
433.000000	0.638110  
433.500000	0.664287  
434.000000	0.695598  
434.500000	0.674400  
435.000000	0.659279  
435.500000	0.635654  
436.000000	0.602159  
436.500000	0.559434  
437.000000	0.526442  
437.500000	0.498367  
438.000000	0.466543  
438.500000	0.469839  
439.000000	0.445224  
439.500000	0.437679  
440.000000	0.429989  
440.500000	0.419661  
441.000000	0.402480  
441.500000	0.370849  
442.000000	0.354138  
442.500000	0.330646  
443.000000	0.324591  
443.500000	0.301807  
444.000000	0.296755  
444.500000	0.283289  

