PE FL                   SPECTRUM    ASCII       PEDS        1.60        
  -1
PM50E4~1
23/10/10
10:54:35.00
23/10/10
10:54:35.00


444.500000
1









LS55
50.00
5.00
5.00
SCAN
1
20
100
100
0
500
0
2
0
1
7
ON
500 450 
1 0 0
#HDR
-1
-1
#GR
NM

0.00002384185791015625
0.0
300.000000
0.500000
290
8
24.256320
0.005804
#DATA
300.000000	8.635999  
300.500000	10.976814 
301.000000	12.688346 
301.500000	14.721426 
302.000000	16.960840 
302.500000	19.586833 
303.000000	21.692143 
303.500000	23.090863 
304.000000	23.609296 
304.500000	24.064952 
305.000000	24.256320 
305.500000	23.644237 
306.000000	23.053478 
306.500000	22.378594 
307.000000	21.966813 
307.500000	21.492180 
308.000000	20.875687 
308.500000	20.430898 
309.000000	20.269780 
309.500000	20.645518 
310.000000	21.244958 
310.500000	21.961773 
311.000000	22.530745 
311.500000	22.966284 
312.000000	23.128881 
312.500000	22.965678 
313.000000	22.652832 
313.500000	21.921648 
314.000000	21.406195 
314.500000	21.119098 
315.000000	21.138005 
315.500000	21.353308 
316.000000	21.682367 
316.500000	22.022064 
317.000000	22.200256 
317.500000	22.260619 
318.000000	21.789155 
318.500000	21.066313 
319.000000	20.175074 
319.500000	19.332578 
320.000000	18.526497 
320.500000	17.627689 
321.000000	16.778939 
321.500000	16.151648 
322.000000	15.772233 
322.500000	15.560972 
323.000000	15.360460 
323.500000	15.048467 
324.000000	14.814301 
324.500000	14.578095 
325.000000	14.151271 
325.500000	13.503587 
326.000000	12.730905 
326.500000	11.793748 
327.000000	11.005736 
327.500000	10.331375 
328.000000	9.711545  
328.500000	9.341151  
329.000000	9.122628  
329.500000	9.022323  
330.000000	8.881403  
330.500000	8.656263  
331.000000	8.221506  
331.500000	7.785974  
332.000000	7.416440  
332.500000	7.021055  
333.000000	6.648211  
333.500000	6.137662  
334.000000	5.571446  
334.500000	4.890718  
335.000000	4.124993  
335.500000	3.229359  
336.000000	2.311632  
336.500000	1.562781  
337.000000	1.051018  
337.500000	0.724693  
338.000000	0.447922  
338.500000	0.296399  
339.000000	0.242496  
339.500000	0.184009  
340.000000	0.068692  
340.500000	0.005804  
341.000000	0.080174  
341.500000	0.284736  
342.000000	0.512565  
342.500000	0.664797  
343.000000	0.886677  
343.500000	1.125568  
344.000000	1.310139  
344.500000	1.442060  
345.000000	1.403692  
345.500000	1.439668  
346.000000	1.460178  
346.500000	1.366784  
347.000000	1.166406  
347.500000	0.920797  
348.000000	0.710795  
348.500000	0.513068  
349.000000	0.498859  
349.500000	0.369672  
350.000000	0.422129  
350.500000	0.569644  
351.000000	0.706295  
351.500000	0.936434  
352.000000	1.186106  
352.500000	1.466734  
353.000000	1.654874  
353.500000	1.948371  
354.000000	1.955999  
354.500000	1.857573  
355.000000	1.694245  
355.500000	1.357887  
356.000000	1.067283  
356.500000	0.771838  
357.000000	0.657467  
357.500000	0.644773  
358.000000	0.803342  
358.500000	0.829119  
359.000000	0.777556  
359.500000	0.700788  
360.000000	0.513632  
360.500000	0.374237  
361.000000	0.207008  
361.500000	0.140923  
362.000000	0.281793  
362.500000	0.591331  
363.000000	0.888513  
363.500000	1.149355  
364.000000	1.359041  
364.500000	1.389772  
365.000000	1.400572  
365.500000	1.304407  
366.000000	1.092964  
366.500000	1.000982  
367.000000	0.972763  
367.500000	1.008699  
368.000000	1.088085  
368.500000	1.172865  
369.000000	1.152056  
369.500000	1.141456  
370.000000	1.147060  
370.500000	1.051380  
371.000000	1.036531  
371.500000	1.042797  
372.000000	1.093797  
372.500000	1.203440  
373.000000	1.367836  
373.500000	1.519239  
374.000000	1.618005  
374.500000	1.724806  
375.000000	1.721426  
375.500000	1.636079  
376.000000	1.483572  
376.500000	1.277749  
377.000000	1.085268  
377.500000	0.975587  
378.000000	0.942774  
378.500000	0.985333  
379.000000	1.151410  
379.500000	1.369511  
380.000000	1.600118  
380.500000	1.804989  
381.000000	1.872276  
381.500000	1.859171  
382.000000	1.827218  
382.500000	1.733816  
383.000000	1.673391  
383.500000	1.665331  
384.000000	1.725170  
384.500000	1.862538  
385.000000	2.053694  
385.500000	2.196307  
386.000000	2.284176  
386.500000	2.334984  
387.000000	2.273833  
387.500000	2.174018  
388.000000	2.030373  
388.500000	1.862700  
389.000000	1.737556  
389.500000	1.686413  
390.000000	1.725401  
390.500000	1.801142  
391.000000	1.893833  
391.500000	1.929611  
392.000000	1.942388  
392.500000	1.907637  
393.000000	1.779217  
393.500000	1.562667  
394.000000	1.287197  
394.500000	1.098399  
395.000000	0.973852  
395.500000	0.948608  
396.000000	0.948171  
396.500000	0.999313  
397.000000	1.138641  
397.500000	1.293032  
398.000000	1.426188  
398.500000	1.493202  
399.000000	1.541939  
399.500000	1.572351  
400.000000	1.630032  
400.500000	1.620586  
401.000000	1.553894  
401.500000	1.481072  
402.000000	1.404759  
402.500000	1.311446  
403.000000	1.213680  
403.500000	1.107755  
404.000000	1.022917  
404.500000	1.007495  
405.000000	1.033709  
405.500000	1.050300  
406.000000	1.048060  
406.500000	1.015123  
407.000000	0.977589  
407.500000	0.926173  
408.000000	0.822629  
408.500000	0.740019  
409.000000	0.689816  
409.500000	0.690679  
410.000000	0.728227  
410.500000	0.797170  
411.000000	0.863045  
411.500000	0.953676  
412.000000	1.023272  
412.500000	1.006800  
413.000000	0.958498  
413.500000	0.882020  
414.000000	0.816994  
414.500000	0.749117  
415.000000	0.708007  
415.500000	0.673729  
416.000000	0.681138  
416.500000	0.704359  
417.000000	0.669157  
417.500000	0.588217  
418.000000	0.505049  
418.500000	0.422449  
419.000000	0.330058  
419.500000	0.258786  
420.000000	0.221339  
420.500000	0.231561  
421.000000	0.284640  
421.500000	0.336190  
422.000000	0.371794  
422.500000	0.411518  
423.000000	0.446505  
423.500000	0.483724  
424.000000	0.511459  
424.500000	0.545721  
425.000000	0.550953  
425.500000	0.555781  
426.000000	0.518611  
426.500000	0.454017  
427.000000	0.393637  
427.500000	0.330509  
428.000000	0.273185  
428.500000	0.249623  
429.000000	0.282412  
429.500000	0.333885  
430.000000	0.425566  
430.500000	0.510039  
431.000000	0.590605  
431.500000	0.663791  
432.000000	0.708242  
432.500000	0.694308  
433.000000	0.647082  
433.500000	0.582660  
434.000000	0.499163  
434.500000	0.433954  
435.000000	0.381272  
435.500000	0.349879  
436.000000	0.357325  
436.500000	0.389499  
437.000000	0.406136  
437.500000	0.428333  
438.000000	0.416997  
438.500000	0.405037  
439.000000	0.389172  
439.500000	0.374383  
440.000000	0.369624  
440.500000	0.376866  
441.000000	0.398389  
441.500000	0.423056  
442.000000	0.443076  
442.500000	0.424821  
443.000000	0.406364  
443.500000	0.387678  
444.000000	0.367611  
444.500000	0.371219  

