PE FL                   SPECTRUM    ASCII       PEDS        1.60        
  -1
PP90A1~1
23/10/10
15:41:47.00
23/10/10
15:41:47.00


444.500000
1









LS55
30.00
5.00
5.00
SCAN
1
20
100
100
0
500
0
2
0
1
7
ON
500 450 
1 0 0
#HDR
-1
-1
#GR
NM

0.00002384185791015625
0.0
250.000000
0.500000
390
8
6.415110
-5.000000
#DATA
250.000000	-5.000000 
250.500000	-3.488705 
251.000000	-2.475250 
251.500000	-1.962335 
252.000000	-1.478100 
252.500000	-1.194313 
253.000000	-1.228639 
253.500000	-1.672620 
254.000000	-2.072537 
254.500000	-2.226473 
255.000000	-2.193459 
255.500000	-2.471542 
256.000000	-2.869624 
256.500000	-3.111150 
257.000000	-3.098640 
257.500000	-2.903074 
258.000000	-2.650116 
258.500000	-2.236621 
259.000000	-1.675533 
259.500000	-1.097307 
260.000000	-0.654435 
260.500000	-0.287114 
261.000000	-0.047319 
261.500000	0.063015  
262.000000	-0.125549 
262.500000	-0.473861 
263.000000	-1.026305 
263.500000	-1.492321 
264.000000	-1.941838 
264.500000	-2.408928 
265.000000	-2.685995 
265.500000	-2.885460 
266.000000	-2.973974 
266.500000	-3.057895 
267.000000	-2.886725 
267.500000	-2.703564 
268.000000	-2.561889 
268.500000	-2.462415 
269.000000	-2.503188 
269.500000	-2.312958 
270.000000	-2.129114 
270.500000	-1.901241 
271.000000	-2.132399 
271.500000	-2.232651 
272.000000	-2.551568 
272.500000	-2.695518 
273.000000	-2.593620 
273.500000	-2.631376 
274.000000	-2.365739 
274.500000	-1.986782 
275.000000	-1.471730 
275.500000	-1.416649 
276.000000	-1.291932 
276.500000	-1.691663 
277.000000	-2.083120 
277.500000	-2.300326 
278.000000	-2.562505 
278.500000	-2.612637 
279.000000	-2.453166 
279.500000	-2.213238 
280.000000	-2.122637 
280.500000	-1.810453 
281.000000	-1.838675 
281.500000	-1.890311 
282.000000	-1.851809 
282.500000	-1.778885 
283.000000	-1.618131 
283.500000	-1.350070 
284.000000	-1.434614 
284.500000	-1.791134 
285.000000	-2.303771 
285.500000	-2.723553 
286.000000	-3.094078 
286.500000	-3.277852 
287.000000	-3.242709 
287.500000	-3.184954 
288.000000	-2.811064 
288.500000	-2.550746 
289.000000	-2.341754 
289.500000	-2.439592 
290.000000	-2.379393 
290.500000	-2.127207 
291.000000	-1.660198 
291.500000	-0.935101 
292.000000	-0.446485 
292.500000	-0.135307 
293.000000	-0.073620 
293.500000	-0.336491 
294.000000	-1.072861 
294.500000	-2.096767 
295.000000	-2.999514 
295.500000	-3.437643 
296.000000	-3.387121 
296.500000	-2.916943 
297.000000	-2.187031 
297.500000	-1.164231 
298.000000	-0.175529 
298.500000	0.678770  
299.000000	1.114856  
299.500000	1.176749  
300.000000	0.971562  
300.500000	0.615166  
301.000000	0.344135  
301.500000	0.055385  
302.000000	0.173193  
302.500000	0.546313  
303.000000	1.057078  
303.500000	1.523757  
304.000000	1.898938  
304.500000	2.289393  
305.000000	2.452132  
305.500000	2.374308  
306.000000	2.196599  
306.500000	2.135218  
307.000000	2.480825  
307.500000	2.886113  
308.000000	3.368230  
308.500000	3.944136  
309.000000	4.559735  
309.500000	5.204883  
310.000000	5.444024  
310.500000	5.493981  
311.000000	5.220575  
311.500000	5.124730  
312.000000	5.156312  
312.500000	5.136720  
313.000000	5.211024  
313.500000	5.411814  
314.000000	5.828809  
314.500000	6.129032  
315.000000	6.415110  
315.500000	6.372851  
316.000000	6.052830  
316.500000	5.625302  
317.000000	5.016234  
317.500000	4.441733  
318.000000	3.785917  
318.500000	3.441883  
319.000000	3.439765  
319.500000	3.566350  
320.000000	3.895830  
320.500000	4.152856  
321.000000	4.475061  
321.500000	4.710698  
322.000000	4.836901  
322.500000	4.908437  
323.000000	4.985729  
323.500000	5.188528  
324.000000	5.223689  
324.500000	5.273561  
325.000000	5.178239  
325.500000	4.931564  
326.000000	4.633678  
326.500000	4.169044  
327.000000	3.597209  
327.500000	3.117606  
328.000000	2.755725  
328.500000	2.377110  
329.000000	2.094623  
329.500000	1.849871  
330.000000	1.736950  
330.500000	1.782045  
331.000000	1.999269  
331.500000	2.234590  
332.000000	2.695591  
332.500000	3.233495  
333.000000	3.668866  
333.500000	3.897250  
334.000000	3.796963  
334.500000	3.593822  
335.000000	3.276966  
335.500000	3.010363  
336.000000	2.570850  
336.500000	2.382052  
337.000000	2.318785  
337.500000	2.344390  
338.000000	2.515355  
338.500000	2.429953  
339.000000	2.455663  
339.500000	2.451109  
340.000000	2.429486  
340.500000	2.296823  
341.000000	2.265325  
341.500000	2.201063  
342.000000	2.077346  
342.500000	2.093664  
343.000000	1.961573  
343.500000	1.870219  
344.000000	1.795357  
344.500000	1.817693  
345.000000	1.911992  
345.500000	2.126058  
346.000000	2.218647  
346.500000	2.160539  
347.000000	2.149846  
347.500000	2.055705  
348.000000	1.898489  
348.500000	1.643787  
349.000000	1.390357  
349.500000	1.208467  
350.000000	1.132274  
350.500000	1.009539  
351.000000	0.862994  
351.500000	0.778820  
352.000000	0.821930  
352.500000	0.848488  
353.000000	0.834192  
353.500000	0.903560  
354.000000	1.112775  
354.500000	1.347835  
355.000000	1.518394  
355.500000	1.688267  
356.000000	1.856926  
356.500000	2.021668  
357.000000	2.030166  
357.500000	1.970982  
358.000000	1.849929  
358.500000	1.797505  
359.000000	1.677340  
359.500000	1.496045  
360.000000	1.436216  
360.500000	1.562161  
361.000000	1.868780  
361.500000	2.144249  
362.000000	2.433925  
362.500000	2.686781  
363.000000	2.947214  
363.500000	3.080724  
364.000000	3.012747  
364.500000	2.839693  
365.000000	2.686443  
365.500000	2.505757  
366.000000	2.330668  
366.500000	2.291711  
367.000000	2.294337  
367.500000	2.382683  
368.000000	2.505580  
368.500000	2.532181  
369.000000	2.450187  
369.500000	2.453814  
370.000000	2.353867  
370.500000	2.234043  
371.000000	2.182433  
371.500000	2.145065  
372.000000	2.114839  
372.500000	2.193453  
373.000000	2.231107  
373.500000	2.186996  
374.000000	2.254211  
374.500000	2.216558  
375.000000	2.083134  
375.500000	1.964528  
376.000000	1.849899  
376.500000	1.717653  
377.000000	1.748154  
377.500000	1.780309  
378.000000	1.856989  
378.500000	2.048811  
379.000000	2.275278  
379.500000	2.468184  
380.000000	2.640307  
380.500000	2.777339  
381.000000	2.760455  
381.500000	2.772640  
382.000000	2.720958  
382.500000	2.670507  
383.000000	2.643530  
383.500000	2.673935  
384.000000	2.707535  
384.500000	2.744254  
385.000000	2.739371  
385.500000	2.639738  
386.000000	2.576260  
386.500000	2.475209  
387.000000	2.388101  
387.500000	2.348880  
388.000000	2.330802  
388.500000	2.342763  
389.000000	2.393967  
389.500000	2.501150  
390.000000	2.530450  
390.500000	2.564799  
391.000000	2.590339  
391.500000	2.625074  
392.000000	2.721380  
392.500000	2.801442  
393.000000	2.824481  
393.500000	2.795749  
394.000000	2.777081  
394.500000	2.686594  
395.000000	2.570430  
395.500000	2.420596  
396.000000	2.315950  
396.500000	2.296338  
397.000000	2.374026  
397.500000	2.448032  
398.000000	2.474989  
398.500000	2.488834  
399.000000	2.457203  
399.500000	2.329271  
400.000000	2.158506  
400.500000	1.979559  
401.000000	1.805535  
401.500000	1.780203  
402.000000	1.784298  
402.500000	1.875842  
403.000000	2.006022  
403.500000	2.187353  
404.000000	2.299002  
404.500000	2.370142  
405.000000	2.366480  
405.500000	2.274463  
406.000000	2.248517  
406.500000	2.185355  
407.000000	2.168546  
407.500000	2.172618  
408.000000	2.235293  
408.500000	2.269561  
409.000000	2.311501  
409.500000	2.322975  
410.000000	2.275467  
410.500000	2.228852  
411.000000	2.157987  
411.500000	2.121404  
412.000000	2.115887  
412.500000	2.119074  
413.000000	2.084479  
413.500000	2.032933  
414.000000	2.019722  
414.500000	1.996945  
415.000000	1.974101  
415.500000	1.956694  
416.000000	1.945714  
416.500000	1.961109  
417.000000	2.002209  
417.500000	1.992313  
418.000000	1.923706  
418.500000	1.866246  
419.000000	1.810070  
419.500000	1.772405  
420.000000	1.763712  
420.500000	1.742201  
421.000000	1.721059  
421.500000	1.737436  
422.000000	1.741118  
422.500000	1.705208  
423.000000	1.641432  
423.500000	1.554240  
424.000000	1.505889  
424.500000	1.496771  
425.000000	1.499358  
425.500000	1.495814  
426.000000	1.512314  
426.500000	1.538488  
427.000000	1.566952  
427.500000	1.589645  
428.000000	1.603830  
428.500000	1.622673  
429.000000	1.645534  
429.500000	1.667461  
430.000000	1.684656  
430.500000	1.675587  
431.000000	1.651741  
431.500000	1.620037  
432.000000	1.569760  
432.500000	1.504793  
433.000000	1.455239  
433.500000	1.422605  
434.000000	1.405049  
434.500000	1.419086  
435.000000	1.445562  
435.500000	1.459467  
436.000000	1.482864  
436.500000	1.492353  
437.000000	1.494418  
437.500000	1.473900  
438.000000	1.449228  
438.500000	1.414008  
439.000000	1.398166  
439.500000	1.398036  
440.000000	1.406088  
440.500000	1.442722  
441.000000	1.476302  
441.500000	1.515337  
442.000000	1.532434  
442.500000	1.539083  
443.000000	1.525580  
443.500000	1.508560  
444.000000	1.493704  
444.500000	1.481179  

