PE FL                   SPECTRUM    ASCII       PEDS        1.60        
  -1
PP9071~1
23/10/10
15:39:45.00
23/10/10
15:39:45.00


444.500000
1









LS55
15.00
5.00
5.00
SCAN
1
20
100
100
0
500
0
2
0
1
7
ON
500 450 
1 0 0
#HDR
-1
-1
#GR
NM

0.00002384185791015625
0.0
250.000000
0.500000
390
8
5.432999
-4.769079
#DATA
250.000000	5.432999  
250.500000	2.999526  
251.000000	1.261718  
251.500000	-0.255633 
252.000000	-1.276304 
252.500000	-1.641106 
253.000000	-1.781110 
253.500000	-1.862356 
254.000000	-1.237719 
254.500000	-0.926253 
255.000000	-0.488911 
255.500000	0.157254  
256.000000	0.584132  
256.500000	0.742884  
257.000000	0.993714  
257.500000	0.760374  
258.000000	0.011668  
258.500000	-0.549114 
259.000000	-1.304109 
259.500000	-1.894066 
260.000000	-2.116523 
260.500000	-2.405098 
261.000000	-2.670023 
261.500000	-2.148246 
262.000000	-1.518067 
262.500000	-0.864074 
263.000000	-0.222232 
263.500000	0.234749  
264.000000	0.515401  
264.500000	1.027745  
265.000000	1.148400  
265.500000	0.535977  
266.000000	-0.257871 
266.500000	-0.929804 
267.000000	-1.196115 
267.500000	-1.326999 
268.000000	-1.372451 
268.500000	-1.588172 
269.000000	-1.397463 
269.500000	-1.073529 
270.000000	-1.234969 
270.500000	-1.931685 
271.000000	-2.622167 
271.500000	-3.080174 
272.000000	-3.373890 
272.500000	-3.755858 
273.000000	-4.224850 
273.500000	-4.430168 
274.000000	-4.249421 
274.500000	-4.101265 
275.000000	-4.007244 
275.500000	-3.626252 
276.000000	-2.987018 
276.500000	-2.266695 
277.000000	-1.946907 
277.500000	-1.695588 
278.000000	-1.283730 
278.500000	-0.740426 
279.000000	-0.587633 
279.500000	-0.706847 
280.000000	-0.666108 
280.500000	-0.464924 
281.000000	-0.272925 
281.500000	-0.731676 
282.000000	-1.415873 
282.500000	-2.082296 
283.000000	-2.677463 
283.500000	-3.288398 
284.000000	-4.032427 
284.500000	-4.518437 
285.000000	-4.645306 
285.500000	-4.533002 
286.000000	-4.669642 
286.500000	-4.769079 
287.000000	-4.699366 
287.500000	-4.600598 
288.000000	-4.369925 
288.500000	-3.843835 
289.000000	-2.983670 
289.500000	-1.844735 
290.000000	-0.669350 
290.500000	0.247734  
291.000000	0.910486  
291.500000	1.097450  
292.000000	0.940329  
292.500000	0.246685  
293.000000	-0.550951 
293.500000	-1.337876 
294.000000	-1.953939 
294.500000	-2.559848 
295.000000	-2.997939 
295.500000	-3.130565 
296.000000	-3.339825 
296.500000	-3.259979 
297.000000	-3.227003 
297.500000	-3.082282 
298.000000	-2.964503 
298.500000	-2.769838 
299.000000	-2.778423 
299.500000	-2.841215 
300.000000	-2.849278 
300.500000	-3.108342 
301.000000	-3.287636 
301.500000	-3.479049 
302.000000	-3.595489 
302.500000	-3.650285 
303.000000	-3.578638 
303.500000	-3.447158 
304.000000	-3.210653 
304.500000	-2.937144 
305.000000	-2.650133 
305.500000	-2.248385 
306.000000	-1.752597 
306.500000	-1.231315 
307.000000	-0.705985 
307.500000	-0.372838 
308.000000	-0.026394 
308.500000	0.358519  
309.000000	0.683008  
309.500000	0.960059  
310.000000	1.043412  
310.500000	1.129957  
311.000000	1.061855  
311.500000	1.085640  
312.000000	0.948852  
312.500000	0.913478  
313.000000	0.916361  
313.500000	1.148797  
314.000000	1.576605  
314.500000	1.630186  
315.000000	1.823670  
315.500000	1.937177  
316.000000	2.158961  
316.500000	2.209981  
317.000000	2.241117  
317.500000	2.176913  
318.000000	2.316553  
318.500000	2.687460  
319.000000	2.674725  
319.500000	2.760846  
320.000000	2.828561  
320.500000	2.935473  
321.000000	3.010721  
321.500000	3.051586  
322.000000	2.837288  
322.500000	2.721075  
323.000000	2.642332  
323.500000	2.212134  
324.000000	1.647302  
324.500000	1.154898  
325.000000	0.806077  
325.500000	0.677940  
326.000000	0.766216  
326.500000	0.890482  
327.000000	1.233586  
327.500000	1.614591  
328.000000	1.960868  
328.500000	2.131466  
329.000000	2.191204  
329.500000	2.092327  
330.000000	1.900405  
330.500000	1.677076  
331.000000	1.399605  
331.500000	1.230485  
332.000000	1.007452  
332.500000	0.854526  
333.000000	0.795128  
333.500000	0.889544  
334.000000	1.014927  
334.500000	1.168555  
335.000000	1.183091  
335.500000	1.228356  
336.000000	1.281404  
336.500000	1.217085  
337.000000	1.054423  
337.500000	0.981039  
338.000000	1.127188  
338.500000	1.379428  
339.000000	1.700603  
339.500000	1.826902  
340.000000	1.661165  
340.500000	1.441495  
341.000000	1.123005  
341.500000	0.641004  
342.000000	0.248725  
342.500000	0.043010  
343.000000	0.056581  
343.500000	0.420331  
344.000000	1.032574  
344.500000	1.494895  
345.000000	1.941892  
345.500000	2.248742  
346.000000	2.286171  
346.500000	2.205710  
347.000000	1.993707  
347.500000	1.727954  
348.000000	1.564876  
348.500000	1.614387  
349.000000	1.548969  
349.500000	1.548755  
350.000000	1.637961  
350.500000	1.693175  
351.000000	1.691568  
351.500000	1.664341  
352.000000	1.666580  
352.500000	1.675399  
353.000000	1.694816  
353.500000	1.703298  
354.000000	1.729526  
354.500000	1.806482  
355.000000	1.979425  
355.500000	2.095592  
356.000000	2.080384  
356.500000	2.045491  
357.000000	2.066397  
357.500000	1.934302  
358.000000	1.810399  
358.500000	1.643933  
359.000000	1.465237  
359.500000	1.356377  
360.000000	1.320636  
360.500000	1.270899  
361.000000	1.257297  
361.500000	1.448398  
362.000000	1.533149  
362.500000	1.741719  
363.000000	2.022012  
363.500000	2.237457  
364.000000	2.429926  
364.500000	2.612292  
365.000000	2.652585  
365.500000	2.501563  
366.000000	2.334718  
366.500000	1.979538  
367.000000	1.706457  
367.500000	1.465316  
368.000000	1.272603  
368.500000	1.216912  
369.000000	1.202687  
369.500000	1.212507  
370.000000	1.332016  
370.500000	1.420747  
371.000000	1.448117  
371.500000	1.540553  
372.000000	1.632354  
372.500000	1.665307  
373.000000	1.799670  
373.500000	1.903178  
374.000000	1.912713  
374.500000	2.009563  
375.000000	2.008707  
375.500000	1.938418  
376.000000	1.876158  
376.500000	1.835693  
377.000000	1.691330  
377.500000	1.692184  
378.000000	1.730692  
378.500000	1.692307  
379.000000	1.724515  
379.500000	1.719497  
380.000000	1.703399  
380.500000	1.699723  
381.000000	1.742431  
381.500000	1.654791  
382.000000	1.603206  
382.500000	1.566073  
383.000000	1.557353  
383.500000	1.552861  
384.000000	1.517903  
384.500000	1.502363  
385.000000	1.511933  
385.500000	1.573878  
386.000000	1.617976  
386.500000	1.731267  
387.000000	1.837322  
387.500000	2.003517  
388.000000	2.138508  
388.500000	2.178315  
389.000000	2.188149  
389.500000	2.126276  
390.000000	2.001008  
390.500000	1.855595  
391.000000	1.719027  
391.500000	1.595376  
392.000000	1.578602  
392.500000	1.639285  
393.000000	1.714781  
393.500000	1.850736  
394.000000	1.942584  
394.500000	1.990851  
395.000000	2.004963  
395.500000	1.971906  
396.000000	1.899384  
396.500000	1.852921  
397.000000	1.835019  
397.500000	1.816227  
398.000000	1.783895  
398.500000	1.708639  
399.000000	1.644466  
399.500000	1.619334  
400.000000	1.578121  
400.500000	1.547015  
401.000000	1.526242  
401.500000	1.560971  
402.000000	1.625358  
402.500000	1.711519  
403.000000	1.755522  
403.500000	1.804348  
404.000000	1.865060  
404.500000	1.934127  
405.000000	1.989930  
405.500000	2.034052  
406.000000	2.076467  
406.500000	2.090370  
407.000000	2.129770  
407.500000	2.135799  
408.000000	2.150148  
408.500000	2.163138  
409.000000	2.185762  
409.500000	2.251686  
410.000000	2.310022  
410.500000	2.333590  
411.000000	2.266430  
411.500000	2.169813  
412.000000	2.013288  
412.500000	1.888675  
413.000000	1.778523  
413.500000	1.676198  
414.000000	1.645595  
414.500000	1.691389  
415.000000	1.791205  
415.500000	1.866191  
416.000000	1.940885  
416.500000	1.937266  
417.000000	1.903863  
417.500000	1.864413  
418.000000	1.767344  
418.500000	1.675986  
419.000000	1.609669  
419.500000	1.574620  
420.000000	1.535098  
420.500000	1.541319  
421.000000	1.534016  
421.500000	1.518482  
422.000000	1.527671  
422.500000	1.519080  
423.000000	1.499639  
423.500000	1.493569  
424.000000	1.506861  
424.500000	1.490380  
425.000000	1.505101  
425.500000	1.545268  
426.000000	1.592171  
426.500000	1.636042  
427.000000	1.637064  
427.500000	1.624191  
428.000000	1.599865  
428.500000	1.570091  
429.000000	1.503543  
429.500000	1.431231  
430.000000	1.379359  
430.500000	1.355783  
431.000000	1.360340  
431.500000	1.355826  
432.000000	1.358800  
432.500000	1.379523  
433.000000	1.409250  
433.500000	1.415239  
434.000000	1.403611  
434.500000	1.376917  
435.000000	1.364013  
435.500000	1.361557  
436.000000	1.348005  
436.500000	1.333902  
437.000000	1.337379  
437.500000	1.344935  
438.000000	1.345593  
438.500000	1.332479  
439.000000	1.290692  
439.500000	1.247891  
440.000000	1.215137  
440.500000	1.196249  
441.000000	1.181562  
441.500000	1.189770  
442.000000	1.222028  
442.500000	1.271729  
443.000000	1.320026  
443.500000	1.348734  
444.000000	1.357956  
444.500000	1.353586  

