PE FL                   SPECTRUM    ASCII       PEDS        1.60        
  -1
PMEF03~1
23/10/12
12:15:01.00
23/10/12
12:15:01.00


444.500000
1









LS55
50.00
5.00
5.00
SCAN
1
20
100
500
0
500
0
2
0
1
7
ON
500 450 
1 0 0
#HDR
-1
-1
#GR
NM

0.00002384185791015625
0.0
250.000000
0.500000
390
8
22.771678
-5.221001
#DATA
250.000000	-4.999999 
250.500000	-4.214423 
251.000000	-3.790289 
251.500000	-3.684027 
252.000000	-3.699360 
252.500000	-3.834573 
253.000000	-4.113914 
253.500000	-4.533769 
254.000000	-4.872804 
254.500000	-4.893949 
255.000000	-4.858630 
255.500000	-5.105012 
256.000000	-5.195712 
256.500000	-5.221001 
257.000000	-4.839316 
257.500000	-4.181370 
258.000000	-3.294817 
258.500000	-2.185853 
259.000000	-0.987291 
259.500000	-0.051070 
260.000000	0.152044  
260.500000	-0.137806 
261.000000	-1.049687 
261.500000	-1.825047 
262.000000	-2.507362 
262.500000	-3.060592 
263.000000	-3.272335 
263.500000	-3.068780 
264.000000	-2.563445 
264.500000	-2.295393 
265.000000	-2.403676 
265.500000	-2.977173 
266.000000	-3.272544 
266.500000	-3.276997 
267.000000	-2.907883 
267.500000	-2.423119 
268.000000	-1.534777 
268.500000	-0.259336 
269.000000	1.125684  
269.500000	1.839267  
270.000000	1.950972  
270.500000	1.684668  
271.000000	1.121433  
271.500000	0.528262  
272.000000	-0.536628 
272.500000	-1.706271 
273.000000	-2.609479 
273.500000	-3.152779 
274.000000	-3.782848 
274.500000	-4.014666 
275.000000	-3.878262 
275.500000	-3.610244 
276.000000	-2.798020 
276.500000	-1.968372 
277.000000	-1.335826 
277.500000	-1.036671 
278.000000	-0.872879 
278.500000	-1.202187 
279.000000	-1.558700 
279.500000	-1.704047 
280.000000	-2.048938 
280.500000	-2.302703 
281.000000	-2.139453 
281.500000	-1.737185 
282.000000	-1.579366 
282.500000	-1.389295 
283.000000	-1.435025 
283.500000	-1.707068 
284.000000	-1.851308 
284.500000	-2.337920 
285.000000	-2.793835 
285.500000	-2.951722 
286.000000	-2.628858 
286.500000	-2.420118 
287.000000	-2.037710 
287.500000	-1.676652 
288.000000	-1.480576 
288.500000	-1.206781 
289.000000	-1.273240 
289.500000	-1.166574 
290.000000	-0.984960 
290.500000	-0.388066 
291.000000	0.064570  
291.500000	0.656637  
292.000000	0.896896  
292.500000	1.106885  
293.000000	1.399968  
293.500000	1.147435  
294.000000	0.784256  
294.500000	0.308697  
295.000000	-0.062986 
295.500000	-0.406169 
296.000000	-0.308060 
296.500000	-0.253286 
297.000000	0.450096  
297.500000	1.776236  
298.000000	3.421543  
298.500000	5.156292  
299.000000	7.157300  
299.500000	8.825628  
300.000000	10.333538 
300.500000	11.665191 
301.000000	12.689520 
301.500000	13.833973 
302.000000	15.212395 
302.500000	16.790937 
303.000000	18.304054 
303.500000	20.072068 
304.000000	21.307439 
304.500000	22.274329 
305.000000	22.749946 
305.500000	22.771678 
306.000000	22.530767 
306.500000	22.189567 
307.000000	21.956773 
307.500000	21.871080 
308.000000	21.838114 
308.500000	21.575373 
309.000000	21.384621 
309.500000	21.235345 
310.000000	21.107515 
310.500000	20.636184 
311.000000	19.970062 
311.500000	19.411712 
312.000000	19.262008 
312.500000	19.026374 
313.000000	18.841017 
313.500000	18.962544 
314.000000	19.332659 
314.500000	19.736917 
315.000000	19.798596 
315.500000	19.334978 
316.000000	18.687800 
316.500000	18.191910 
317.000000	17.502208 
317.500000	16.811407 
318.000000	16.522210 
318.500000	16.467875 
319.000000	16.654901 
319.500000	16.857516 
320.000000	16.883818 
320.500000	16.834810 
321.000000	16.675781 
321.500000	16.228720 
322.000000	15.597228 
322.500000	15.249702 
323.000000	15.099431 
323.500000	15.058304 
324.000000	15.085754 
324.500000	15.081331 
325.000000	15.162359 
325.500000	15.112555 
326.000000	14.912939 
326.500000	14.510464 
327.000000	14.145199 
327.500000	13.695981 
328.000000	13.222985 
328.500000	12.730789 
329.000000	12.249863 
329.500000	11.934464 
330.000000	11.567818 
330.500000	11.290940 
331.000000	10.987245 
331.500000	10.769911 
332.000000	10.496353 
332.500000	10.426022 
333.000000	10.372257 
333.500000	10.303366 
334.000000	10.263905 
334.500000	9.964806  
335.000000	9.634609  
335.500000	9.345338  
336.000000	8.978127  
336.500000	8.456006  
337.000000	8.008963  
337.500000	7.725803  
338.000000	7.637299  
338.500000	7.806587  
339.000000	7.968493  
339.500000	8.123187  
340.000000	8.509724  
340.500000	8.782262  
341.000000	8.797904  
341.500000	8.651879  
342.000000	8.445666  
342.500000	8.112722  
343.000000	7.757550  
343.500000	7.322585  
344.000000	6.796163  
344.500000	6.623027  
345.000000	6.590960  
345.500000	6.634067  
346.000000	6.761584  
346.500000	7.042949  
347.000000	7.308770  
347.500000	7.521175  
348.000000	7.717086  
348.500000	7.781724  
349.000000	7.976693  
349.500000	8.203113  
350.000000	8.324308  
350.500000	8.446052  
351.000000	8.635153  
351.500000	8.802356  
352.000000	8.929896  
352.500000	9.025558  
353.000000	9.012351  
353.500000	8.980608  
354.000000	8.927282  
354.500000	8.910085  
355.000000	8.901955  
355.500000	8.879606  
356.000000	8.858056  
356.500000	8.806777  
357.000000	8.758211  
357.500000	8.738036  
358.000000	8.678915  
358.500000	8.561626  
359.000000	8.516357  
359.500000	8.552857  
360.000000	8.546050  
360.500000	8.561613  
361.000000	8.571048  
361.500000	8.603724  
362.000000	8.685646  
362.500000	8.745342  
363.000000	8.672370  
363.500000	8.606870  
364.000000	8.624064  
364.500000	8.588411  
365.000000	8.588136  
365.500000	8.620781  
366.000000	8.635601  
366.500000	8.706923  
367.000000	8.798845  
367.500000	8.919057  
368.000000	9.023254  
368.500000	9.151269  
369.000000	9.216649  
369.500000	9.252138  
370.000000	9.244949  
370.500000	9.155192  
371.000000	8.980733  
371.500000	8.748091  
372.000000	8.571477  
372.500000	8.445953  
373.000000	8.310603  
373.500000	8.218259  
374.000000	8.169850  
374.500000	8.165727  
375.000000	8.178046  
375.500000	8.114352  
376.000000	7.936049  
376.500000	7.728910  
377.000000	7.722155  
377.500000	7.806309  
378.000000	7.975208  
378.500000	8.159117  
379.000000	8.339003  
379.500000	8.564242  
380.000000	8.694664  
380.500000	8.655151  
381.000000	8.331354  
381.500000	8.060158  
382.000000	7.886394  
382.500000	7.776413  
383.000000	7.741619  
383.500000	7.753847  
384.000000	7.883544  
384.500000	8.023270  
385.000000	8.125788  
385.500000	8.030448  
386.000000	7.931707  
386.500000	7.922650  
387.000000	7.968098  
387.500000	8.079392  
388.000000	8.313567  
388.500000	8.679674  
389.000000	8.990675  
389.500000	9.291027  
390.000000	9.435034  
390.500000	9.465712  
391.000000	9.400235  
391.500000	9.221596  
392.000000	8.950069  
392.500000	8.678800  
393.000000	8.520470  
393.500000	8.299606  
394.000000	8.198348  
394.500000	8.101926  
395.000000	7.999441  
395.500000	7.916628  
396.000000	7.871406  
396.500000	7.810354  
397.000000	7.684309  
397.500000	7.621109  
398.000000	7.487936  
398.500000	7.444787  
399.000000	7.436357  
399.500000	7.334171  
400.000000	7.237709  
400.500000	7.160621  
401.000000	7.186112  
401.500000	7.164473  
402.000000	7.223920  
402.500000	7.222869  
403.000000	7.230765  
403.500000	7.293873  
404.000000	7.278579  
404.500000	7.189139  
405.000000	7.114641  
405.500000	7.101251  
406.000000	7.054274  
406.500000	7.043668  
407.000000	6.955651  
407.500000	6.869485  
408.000000	6.817758  
408.500000	6.765488  
409.000000	6.620048  
409.500000	6.510663  
410.000000	6.454938  
410.500000	6.378183  
411.000000	6.382671  
411.500000	6.323427  
412.000000	6.258265  
412.500000	6.239047  
413.000000	6.285274  
413.500000	6.237966  
414.000000	6.212826  
414.500000	6.176556  
415.000000	6.092139  
415.500000	6.004194  
416.000000	5.854940  
416.500000	5.628444  
417.000000	5.431804  
417.500000	5.326769  
418.000000	5.186644  
418.500000	5.103992  
419.000000	5.056570  
419.500000	4.998176  
420.000000	4.946077  
420.500000	4.930304  
421.000000	4.863370  
421.500000	4.793360  
422.000000	4.806467  
422.500000	4.802079  
423.000000	4.831978  
423.500000	4.861907  
424.000000	4.865590  
424.500000	4.797534  
425.000000	4.737347  
425.500000	4.646962  
426.000000	4.532116  
426.500000	4.478582  
427.000000	4.420751  
427.500000	4.390801  
428.000000	4.395684  
428.500000	4.390699  
429.000000	4.337086  
429.500000	4.265091  
430.000000	4.151905  
430.500000	4.028100  
431.000000	3.930736  
431.500000	3.848592  
432.000000	3.798871  
432.500000	3.799346  
433.000000	3.827812  
433.500000	3.821691  
434.000000	3.789250  
434.500000	3.733841  
435.000000	3.659738  
435.500000	3.578551  
436.000000	3.511109  
436.500000	3.425814  
437.000000	3.374168  
437.500000	3.390454  
438.000000	3.413520  
438.500000	3.424776  
439.000000	3.454031  
439.500000	3.486389  
440.000000	3.497611  
440.500000	3.513690  
441.000000	3.474899  
441.500000	3.402085  
442.000000	3.385131  
442.500000	3.335536  
443.000000	3.256448  
443.500000	3.194690  
444.000000	3.122453  
444.500000	3.047883  

