PE FL                   SPECTRUM    ASCII       PEDS        1.60        
  -1
PMDF5B~1
23/10/12
12:11:38.00
23/10/12
12:11:38.00


444.500000
1









LS55
25.00
5.00
5.00
SCAN
1
20
100
500
0
500
0
2
0
1
7
ON
500 450 
1 0 0
#HDR
-1
-1
#GR
NM

0.00002384185791015625
0.0
250.000000
0.500000
390
8
14.785576
-4.999999
#DATA
250.000000	-4.999999 
250.500000	-4.255447 
251.000000	-3.130054 
251.500000	-2.060586 
252.000000	-1.322942 
252.500000	-0.773082 
253.000000	-0.397351 
253.500000	-0.147960 
254.000000	-0.055811 
254.500000	-0.543135 
255.000000	-1.605809 
255.500000	-2.206636 
256.000000	-2.462066 
256.500000	-2.484928 
257.000000	-2.159233 
257.500000	-1.309923 
258.000000	-0.130276 
258.500000	1.090994  
259.000000	1.715890  
259.500000	1.338660  
260.000000	0.628030  
260.500000	-0.387647 
261.000000	-1.685553 
261.500000	-2.975029 
262.000000	-3.893720 
262.500000	-4.348998 
263.000000	-4.446926 
263.500000	-4.453354 
264.000000	-4.512469 
264.500000	-4.395566 
265.000000	-4.306685 
265.500000	-4.304892 
266.000000	-4.009270 
266.500000	-3.531639 
267.000000	-2.734947 
267.500000	-1.929709 
268.000000	-1.093323 
268.500000	-0.374346 
269.000000	0.263232  
269.500000	0.519017  
270.000000	0.044014  
270.500000	-0.438026 
271.000000	-1.231291 
271.500000	-1.968051 
272.000000	-2.629810 
272.500000	-3.202362 
273.000000	-3.623479 
273.500000	-3.619064 
274.000000	-3.302519 
274.500000	-2.886945 
275.000000	-2.012979 
275.500000	-1.225185 
276.000000	-0.606437 
276.500000	0.121033  
277.000000	0.691251  
277.500000	0.852207  
278.000000	0.776857  
278.500000	0.516802  
279.000000	0.149931  
279.500000	-0.370662 
280.000000	-0.814566 
280.500000	-1.749889 
281.000000	-2.285372 
281.500000	-2.434921 
282.000000	-2.443891 
282.500000	-2.312379 
283.000000	-2.073288 
283.500000	-1.733164 
284.000000	-1.408809 
284.500000	-0.969172 
285.000000	-0.993373 
285.500000	-1.087667 
286.000000	-1.226721 
286.500000	-1.394281 
287.000000	-1.490448 
287.500000	-1.532016 
288.000000	-1.565527 
288.500000	-1.253964 
289.000000	-0.695892 
289.500000	-0.027056 
290.000000	0.764290  
290.500000	1.298242  
291.000000	1.885726  
291.500000	2.327457  
292.000000	2.565326  
292.500000	2.074282  
293.000000	1.703465  
293.500000	1.003111  
294.000000	0.529545  
294.500000	0.210626  
295.000000	-0.077223 
295.500000	-0.162869 
296.000000	-0.155255 
296.500000	-0.108625 
297.000000	-0.495691 
297.500000	-0.465898 
298.000000	-0.385102 
298.500000	-0.018589 
299.000000	0.411720  
299.500000	1.043279  
300.000000	1.845700  
300.500000	2.652644  
301.000000	3.441769  
301.500000	3.697781  
302.000000	3.922076  
302.500000	3.972680  
303.000000	3.950851  
303.500000	3.556502  
304.000000	3.240659  
304.500000	3.309848  
305.000000	3.496155  
305.500000	3.835059  
306.000000	4.059948  
306.500000	4.289268  
307.000000	4.648746  
307.500000	4.969042  
308.000000	5.159384  
308.500000	5.356476  
309.000000	5.861601  
309.500000	6.194621  
310.000000	6.432555  
310.500000	6.684926  
311.000000	6.781746  
311.500000	6.896136  
312.000000	7.043328  
312.500000	7.191682  
313.000000	7.408841  
313.500000	7.870691  
314.000000	8.302597  
314.500000	8.654390  
315.000000	9.239363  
315.500000	9.769339  
316.000000	10.174461 
316.500000	10.598680 
317.000000	11.110207 
317.500000	11.923121 
318.000000	12.830956 
318.500000	13.577884 
319.000000	13.942443 
319.500000	14.439553 
320.000000	14.785576 
320.500000	14.724767 
321.000000	14.349864 
321.500000	13.789640 
322.000000	13.262855 
322.500000	12.901608 
323.000000	12.693540 
323.500000	12.375578 
324.000000	12.304918 
324.500000	12.473438 
325.000000	12.849280 
325.500000	13.110545 
326.000000	13.209526 
326.500000	13.061497 
327.000000	12.809364 
327.500000	12.547021 
328.000000	12.236058 
328.500000	11.908817 
329.000000	11.525529 
329.500000	11.418658 
330.000000	11.298801 
330.500000	11.152392 
331.000000	10.758071 
331.500000	10.305363 
332.000000	9.821740  
332.500000	9.538344  
333.000000	9.394201  
333.500000	9.115834  
334.000000	8.988346  
334.500000	8.939976  
335.000000	8.929303  
335.500000	8.642233  
336.000000	8.210006  
336.500000	7.507994  
337.000000	6.849590  
337.500000	6.307924  
338.000000	5.708697  
338.500000	5.114289  
339.000000	4.677203  
339.500000	4.575271  
340.000000	4.623540  
340.500000	4.859289  
341.000000	5.005317  
341.500000	5.142527  
342.000000	5.345843  
342.500000	5.468912  
343.000000	5.366563  
343.500000	4.973280  
344.000000	4.582937  
344.500000	4.090600  
345.000000	3.750474  
345.500000	3.411680  
346.000000	3.209623  
346.500000	3.159552  
347.000000	3.201487  
347.500000	3.342536  
348.000000	3.388057  
348.500000	3.499186  
349.000000	3.431441  
349.500000	3.430682  
350.000000	3.282401  
350.500000	3.248567  
351.000000	3.321520  
351.500000	3.389797  
352.000000	3.628790  
352.500000	3.927639  
353.000000	4.254357  
353.500000	4.415471  
354.000000	4.526733  
354.500000	4.273177  
355.000000	3.975254  
355.500000	3.570751  
356.000000	3.056576  
356.500000	2.764064  
357.000000	2.710891  
357.500000	2.895045  
358.000000	3.188298  
358.500000	3.631371  
359.000000	3.962238  
359.500000	4.264423  
360.000000	4.361419  
360.500000	4.183757  
361.000000	3.937365  
361.500000	3.640154  
362.000000	3.442390  
362.500000	3.249371  
363.000000	3.193761  
363.500000	3.307509  
364.000000	3.532788  
364.500000	3.756805  
365.000000	3.994608  
365.500000	4.278664  
366.000000	4.472326  
366.500000	4.575871  
367.000000	4.506168  
367.500000	4.327744  
368.000000	4.189214  
368.500000	3.978716  
369.000000	3.753467  
369.500000	3.683139  
370.000000	3.824803  
370.500000	4.060423  
371.000000	4.328101  
371.500000	4.531357  
372.000000	4.703500  
372.500000	4.851034  
373.000000	4.735239  
373.500000	4.446853  
374.000000	4.131371  
374.500000	3.881641  
375.000000	3.667025  
375.500000	3.472572  
376.000000	3.310027  
376.500000	3.278114  
377.000000	3.314640  
377.500000	3.307597  
378.000000	3.251131  
378.500000	3.253856  
379.000000	3.397532  
379.500000	3.646728  
380.000000	3.871726  
380.500000	3.988827  
381.000000	4.064692  
381.500000	4.083960  
382.000000	3.997000  
382.500000	3.826655  
383.000000	3.604912  
383.500000	3.476634  
384.000000	3.502149  
384.500000	3.596092  
385.000000	3.708269  
385.500000	3.826010  
386.000000	3.964266  
386.500000	4.077160  
387.000000	4.134830  
387.500000	4.092187  
388.000000	4.067123  
388.500000	4.080524  
389.000000	4.105901  
389.500000	4.074108  
390.000000	3.962159  
390.500000	3.879008  
391.000000	3.765034  
391.500000	3.671214  
392.000000	3.610107  
392.500000	3.620386  
393.000000	3.693202  
393.500000	3.847884  
394.000000	4.008365  
394.500000	4.112601  
395.000000	4.201336  
395.500000	4.239334  
396.000000	4.178486  
396.500000	4.073505  
397.000000	3.897064  
397.500000	3.696462  
398.000000	3.563811  
398.500000	3.443933  
399.000000	3.330039  
399.500000	3.286367  
400.000000	3.282859  
400.500000	3.309396  
401.000000	3.383314  
401.500000	3.454406  
402.000000	3.532570  
402.500000	3.632931  
403.000000	3.707936  
403.500000	3.714819  
404.000000	3.697498  
404.500000	3.647313  
405.000000	3.600270  
405.500000	3.550311  
406.000000	3.489964  
406.500000	3.454930  
407.000000	3.440903  
407.500000	3.462086  
408.000000	3.484684  
408.500000	3.504715  
409.000000	3.498926  
409.500000	3.503019  
410.000000	3.514536  
410.500000	3.520364  
411.000000	3.532167  
411.500000	3.514820  
412.000000	3.535769  
412.500000	3.553062  
413.000000	3.527639  
413.500000	3.457112  
414.000000	3.379688  
414.500000	3.316716  
415.000000	3.270349  
415.500000	3.227247  
416.000000	3.169092  
416.500000	3.158798  
417.000000	3.196758  
417.500000	3.206946  
418.000000	3.169605  
418.500000	3.082592  
419.000000	2.965098  
419.500000	2.833448  
420.000000	2.685035  
420.500000	2.524004  
421.000000	2.392970  
421.500000	2.329296  
422.000000	2.313712  
422.500000	2.319493  
423.000000	2.349913  
423.500000	2.359845  
424.000000	2.358122  
424.500000	2.320781  
425.000000	2.266713  
425.500000	2.200431  
426.000000	2.128936  
426.500000	2.063109  
427.000000	2.001429  
427.500000	1.977461  
428.000000	1.964767  
428.500000	1.966952  
429.000000	1.953917  
429.500000	1.945414  
430.000000	1.948246  
430.500000	1.946237  
431.000000	1.958504  
431.500000	1.961845  
432.000000	1.987666  
432.500000	2.019531  
433.000000	2.057939  
433.500000	2.072103  
434.000000	2.061584  
434.500000	2.030102  
435.000000	1.987935  
435.500000	1.941840  
436.000000	1.888020  
436.500000	1.844205  
437.000000	1.817528  
437.500000	1.809346  
438.000000	1.813293  
438.500000	1.828261  
439.000000	1.836033  
439.500000	1.845464  
440.000000	1.850852  
440.500000	1.850334  
441.000000	1.848917  
441.500000	1.832508  
442.000000	1.817587  
442.500000	1.780359  
443.000000	1.753375  
443.500000	1.734747  
444.000000	1.725545  
444.500000	1.733734  

