PE FL                   SPECTRUM    ASCII       PEDS        1.60        
  -1
PMDF1B~1
23/10/12
12:08:57.00
23/10/12
12:08:57.00


444.500000
1









LS55
5.00
5.00
5.00
SCAN
1
20
100
500
0
500
0
2
0
1
7
ON
500 450 
1 0 0
#HDR
-1
-1
#GR
NM

0.00002384185791015625
0.0
250.000000
0.500000
390
8
50.820491
-5.118041
#DATA
250.000000	5.577000  
250.500000	2.889218  
251.000000	0.686134  
251.500000	-1.030574 
252.000000	-2.135646 
252.500000	-2.850169 
253.000000	-3.058372 
253.500000	-3.066190 
254.000000	-2.858001 
254.500000	-2.872039 
255.000000	-3.240450 
255.500000	-3.689131 
256.000000	-4.093466 
256.500000	-4.632744 
257.000000	-5.032795 
257.500000	-5.118041 
258.000000	-5.063915 
258.500000	-4.715969 
259.000000	-4.194578 
259.500000	-3.473662 
260.000000	-2.762084 
260.500000	-2.365609 
261.000000	-2.482186 
261.500000	-2.322291 
262.000000	-1.894753 
262.500000	-1.397837 
263.000000	-0.778417 
263.500000	-0.331016 
264.000000	0.173404  
264.500000	0.560225  
265.000000	0.475141  
265.500000	-0.593792 
266.000000	-1.611566 
266.500000	-2.413458 
267.000000	-3.140830 
267.500000	-3.498126 
268.000000	-3.627205 
268.500000	-3.340143 
269.000000	-2.964431 
269.500000	-2.757001 
270.000000	-3.105871 
270.500000	-3.363563 
271.000000	-3.490766 
271.500000	-3.446482 
272.000000	-2.892065 
272.500000	-1.851788 
273.000000	-0.577576 
273.500000	0.576843  
274.000000	1.436509  
274.500000	1.832214  
275.000000	1.797066  
275.500000	1.158427  
276.000000	0.029929  
276.500000	-1.300676 
277.000000	-2.361995 
277.500000	-3.339466 
278.000000	-3.868855 
278.500000	-4.108118 
279.000000	-4.078221 
279.500000	-3.702586 
280.000000	-3.344051 
280.500000	-2.806473 
281.000000	-2.351965 
281.500000	-1.770440 
282.000000	-1.545547 
282.500000	-1.395748 
283.000000	-1.363208 
283.500000	-1.647435 
284.000000	-2.095959 
284.500000	-2.948883 
285.000000	-3.508112 
285.500000	-4.081904 
286.000000	-4.498855 
286.500000	-4.853231 
287.000000	-4.695529 
287.500000	-3.996353 
288.000000	-3.114266 
288.500000	-1.986285 
289.000000	-1.241410 
289.500000	-0.619545 
290.000000	-0.375672 
290.500000	-0.500276 
291.000000	-1.131521 
291.500000	-1.799339 
292.000000	-2.238307 
292.500000	-2.439664 
293.000000	-2.097552 
293.500000	-1.564440 
294.000000	-0.931554 
294.500000	-0.354970 
295.000000	0.164157  
295.500000	0.260386  
296.000000	-0.008870 
296.500000	-0.444119 
297.000000	-1.167160 
297.500000	-1.737640 
298.000000	-2.065016 
298.500000	-2.379000 
299.000000	-2.675524 
299.500000	-2.840949 
300.000000	-2.926178 
300.500000	-2.868937 
301.000000	-2.638746 
301.500000	-2.360577 
302.000000	-2.069686 
302.500000	-1.485301 
303.000000	-0.888089 
303.500000	-0.095593 
304.000000	0.703219  
304.500000	1.317447  
305.000000	1.762023  
305.500000	2.205224  
306.000000	2.316948  
306.500000	1.951181  
307.000000	1.519460  
307.500000	0.745057  
308.000000	0.125387  
308.500000	-0.216828 
309.000000	-0.324318 
309.500000	-0.405412 
310.000000	-0.033287 
310.500000	0.580729  
311.000000	1.077980  
311.500000	1.589168  
312.000000	1.550400  
312.500000	1.269525  
313.000000	1.177138  
313.500000	1.192639  
314.000000	0.890042  
314.500000	0.973358  
315.000000	1.374688  
315.500000	1.927507  
316.000000	2.757631  
316.500000	3.507938  
317.000000	4.095955  
317.500000	4.978280  
318.000000	5.828142  
318.500000	6.208900  
319.000000	6.430967  
319.500000	6.670709  
320.000000	7.047365  
320.500000	7.515835  
321.000000	7.916951  
321.500000	8.088537  
322.000000	8.388782  
322.500000	8.633633  
323.000000	8.570440  
323.500000	8.309020  
324.000000	7.824398  
324.500000	7.297336  
325.000000	7.036677  
325.500000	7.088171  
326.000000	7.407236  
326.500000	7.945076  
327.000000	8.648006  
327.500000	9.360578  
328.000000	9.948941  
328.500000	10.312022 
329.000000	10.410147 
329.500000	10.536177 
330.000000	10.712371 
330.500000	10.954946 
331.000000	11.143787 
331.500000	11.314096 
332.000000	11.315498 
332.500000	11.245520 
333.000000	11.208220 
333.500000	10.886222 
334.000000	10.561610 
334.500000	10.488374 
335.000000	10.721003 
335.500000	11.131237 
336.000000	11.786722 
336.500000	12.456705 
337.000000	13.185192 
337.500000	13.975244 
338.000000	14.455471 
338.500000	14.644713 
339.000000	14.742198 
339.500000	14.666772 
340.000000	14.470828 
340.500000	14.365390 
341.000000	14.184340 
341.500000	14.104845 
342.000000	14.307736 
342.500000	14.383988 
343.000000	14.266395 
343.500000	14.245884 
344.000000	14.176440 
344.500000	14.029881 
345.000000	13.965704 
345.500000	14.048674 
346.000000	14.371819 
346.500000	15.164237 
347.000000	16.066386 
347.500000	17.168002 
348.000000	18.620989 
348.500000	20.019973 
349.000000	21.218067 
349.500000	22.030631 
350.000000	22.367945 
350.500000	22.505488 
351.000000	22.654543 
351.500000	22.634495 
352.000000	22.563823 
352.500000	22.916599 
353.000000	23.663773 
353.500000	24.873344 
354.000000	26.246197 
354.500000	27.389746 
355.000000	28.754533 
355.500000	30.445171 
356.000000	32.076227 
356.500000	33.630351 
357.000000	34.967785 
357.500000	36.471032 
358.000000	38.190372 
358.500000	39.855205 
359.000000	40.762052 
359.500000	41.504044 
360.000000	42.501946 
360.500000	43.426257 
361.000000	44.283405 
361.500000	44.693961 
362.000000	45.295764 
362.500000	46.038975 
363.000000	46.715780 
363.500000	46.753263 
364.000000	46.435850 
364.500000	46.287549 
365.000000	45.993300 
365.500000	45.681530 
366.000000	44.932536 
366.500000	44.224557 
367.000000	43.777420 
367.500000	43.276977 
368.000000	42.568003 
368.500000	41.762523 
369.000000	41.090148 
369.500000	40.769029 
370.000000	40.865229 
370.500000	41.104297 
371.000000	41.384010 
371.500000	42.167505 
372.000000	42.948291 
372.500000	43.527554 
373.000000	44.025338 
373.500000	44.195800 
374.000000	44.230262 
374.500000	44.516916 
375.000000	45.009958 
375.500000	45.323037 
376.000000	45.887170 
376.500000	46.611692 
377.000000	47.152316 
377.500000	47.792247 
378.000000	48.177905 
378.500000	48.160254 
379.000000	47.801156 
379.500000	47.416898 
380.000000	46.874694 
380.500000	46.439513 
381.000000	46.213523 
381.500000	45.829282 
382.000000	45.601242 
382.500000	45.495948 
383.000000	45.370815 
383.500000	44.964006 
384.000000	44.457772 
384.500000	43.509082 
385.000000	42.487887 
385.500000	41.564289 
386.000000	40.500583 
386.500000	39.421545 
387.000000	38.157868 
387.500000	36.830777 
388.000000	35.515877 
388.500000	34.186574 
389.000000	32.291052 
389.500000	30.252012 
390.000000	28.404051 
390.500000	26.705183 
391.000000	25.205389 
391.500000	23.704765 
392.000000	22.045698 
392.500000	20.809974 
393.000000	20.066381 
393.500000	19.492695 
394.000000	18.968084 
394.500000	18.638581 
395.000000	18.434135 
395.500000	18.355668 
396.000000	18.331227 
396.500000	18.042548 
397.000000	17.689898 
397.500000	17.274504 
398.000000	16.827541 
398.500000	16.241202 
399.000000	15.677117 
399.500000	15.103058 
400.000000	14.385838 
400.500000	13.761473 
401.000000	13.173592 
401.500000	12.636072 
402.000000	12.218563 
402.500000	11.858623 
403.000000	11.562446 
403.500000	11.411839 
404.000000	11.432812 
404.500000	11.327623 
405.000000	11.179298 
405.500000	11.082708 
406.000000	10.979316 
406.500000	10.948551 
407.000000	10.857382 
407.500000	10.721473 
408.000000	10.544249 
408.500000	10.428322 
409.000000	10.259110 
409.500000	10.056586 
410.000000	9.867186  
410.500000	9.667940  
411.000000	9.476429  
411.500000	9.318463  
412.000000	9.165980  
412.500000	9.085091  
413.000000	9.125661  
413.500000	9.210206  
414.000000	9.301450  
414.500000	9.507584  
415.000000	9.754706  
415.500000	10.000833 
416.000000	10.345594 
416.500000	10.616936 
417.000000	10.855466 
417.500000	11.202335 
418.000000	11.539222 
418.500000	11.761510 
419.000000	11.962878 
419.500000	12.090088 
420.000000	12.240600 
420.500000	12.556996 
421.000000	12.813516 
421.500000	13.039089 
422.000000	13.384494 
422.500000	13.819630 
423.000000	14.314995 
423.500000	14.768633 
424.000000	15.072305 
424.500000	15.399196 
425.000000	15.884703 
425.500000	16.371886 
426.000000	16.816652 
426.500000	17.244918 
427.000000	17.660158 
427.500000	18.184908 
428.000000	18.704208 
428.500000	19.073988 
429.000000	19.435545 
429.500000	19.877555 
430.000000	20.388194 
430.500000	21.058246 
431.000000	21.957793 
431.500000	22.966512 
432.000000	24.171480 
432.500000	25.876894 
433.000000	27.840835 
433.500000	29.934613 
434.000000	32.076716 
434.500000	34.121947 
435.000000	35.935972 
435.500000	37.698762 
436.000000	39.077660 
436.500000	39.844270 
437.000000	40.427648 
437.500000	40.844735 
438.000000	41.164041 
438.500000	41.374870 
439.000000	41.527137 
439.500000	41.657859 
440.000000	42.171813 
440.500000	42.879583 
441.000000	43.623267 
441.500000	44.604484 
442.000000	45.556557 
442.500000	46.776641 
443.000000	48.106281 
443.500000	49.253464 
444.000000	50.060310 
444.500000	50.820491 

