PE FL                   SPECTRUM    ASCII       PEDS        1.60        
  -1
PMDF6B~1
23/10/12
12:12:19.00
23/10/12
12:12:19.00


444.500000
1









LS55
30.00
5.00
5.00
SCAN
1
20
100
500
0
500
0
2
0
1
7
ON
500 450 
1 0 0
#HDR
-1
-1
#GR
NM

0.00002384185791015625
0.0
250.000000
0.500000
390
8
16.883921
-4.999999
#DATA
250.000000	-4.999999 
250.500000	-3.189137 
251.000000	-1.491403 
251.500000	0.042859  
252.000000	0.606493  
252.500000	0.342033  
253.000000	-0.126584 
253.500000	-0.442319 
254.000000	-1.093190 
254.500000	-1.742943 
255.000000	-2.263404 
255.500000	-2.441157 
256.000000	-2.106097 
256.500000	-1.847856 
257.000000	-2.046710 
257.500000	-2.335524 
258.000000	-2.364956 
258.500000	-2.532426 
259.000000	-3.008951 
259.500000	-3.355482 
260.000000	-3.322391 
260.500000	-2.859734 
261.000000	-2.286127 
261.500000	-1.802547 
262.000000	-1.524083 
262.500000	-1.029673 
263.000000	-0.654335 
263.500000	-0.597632 
264.000000	-0.702925 
264.500000	-0.705984 
265.000000	-0.596289 
265.500000	-0.307168 
266.000000	0.116220  
266.500000	0.349914  
267.000000	0.688788  
267.500000	0.818883  
268.000000	0.550232  
268.500000	-0.091489 
269.000000	-0.932762 
269.500000	-1.908850 
270.000000	-2.919766 
270.500000	-3.700363 
271.000000	-4.275928 
271.500000	-4.605258 
272.000000	-4.853582 
272.500000	-4.695491 
273.000000	-4.290403 
273.500000	-3.740747 
274.000000	-3.208984 
274.500000	-2.980070 
275.000000	-2.692474 
275.500000	-2.185721 
276.000000	-2.078584 
276.500000	-2.013636 
277.000000	-1.786057 
277.500000	-1.344485 
278.000000	-0.725946 
278.500000	0.040185  
279.000000	0.095184  
279.500000	0.221359  
280.000000	0.560318  
280.500000	0.286620  
281.000000	-0.319006 
281.500000	-1.133306 
282.000000	-1.977173 
282.500000	-2.440402 
283.000000	-2.419223 
283.500000	-2.675467 
284.000000	-2.728679 
284.500000	-2.550865 
285.000000	-2.406936 
285.500000	-2.169630 
286.000000	-2.147912 
286.500000	-2.595825 
287.000000	-2.691961 
287.500000	-2.388423 
288.000000	-2.146534 
288.500000	-1.664036 
289.000000	-1.128300 
289.500000	-0.526217 
290.000000	0.325428  
290.500000	0.862051  
291.000000	0.474293  
291.500000	0.190256  
292.000000	-0.014556 
292.500000	-0.489414 
293.000000	-1.045198 
293.500000	-1.423789 
294.000000	-1.635263 
294.500000	-1.412833 
295.000000	-1.021394 
295.500000	-0.964650 
296.000000	-0.499300 
296.500000	0.362241  
297.000000	1.205177  
297.500000	1.932131  
298.000000	2.932957  
298.500000	3.907278  
299.000000	4.740820  
299.500000	5.421249  
300.000000	5.612009  
300.500000	5.507258  
301.000000	5.293364  
301.500000	5.181501  
302.000000	5.023002  
302.500000	5.072763  
303.000000	5.433950  
303.500000	5.901775  
304.000000	6.518621  
304.500000	7.383556  
305.000000	7.816812  
305.500000	8.069558  
306.000000	8.471429  
306.500000	8.891821  
307.000000	8.909927  
307.500000	9.104973  
308.000000	9.290993  
308.500000	9.441976  
309.000000	10.165606 
309.500000	10.607847 
310.000000	11.009421 
310.500000	11.811384 
311.000000	12.958897 
311.500000	13.598659 
312.000000	14.436551 
312.500000	15.025382 
313.000000	15.015120 
313.500000	14.962019 
314.000000	14.489707 
314.500000	13.806752 
315.000000	13.352993 
315.500000	13.481262 
316.000000	13.479225 
316.500000	14.090585 
317.000000	14.898727 
317.500000	15.727766 
318.000000	16.415462 
318.500000	16.839808 
319.000000	16.883921 
319.500000	16.685457 
320.000000	16.593306 
320.500000	16.238932 
321.000000	15.934988 
321.500000	15.565172 
322.000000	15.355262 
322.500000	15.168283 
323.000000	14.990152 
323.500000	14.797232 
324.000000	14.499787 
324.500000	14.331242 
325.000000	14.308595 
325.500000	14.319709 
326.000000	14.110840 
326.500000	13.866470 
327.000000	13.421022 
327.500000	12.966486 
328.000000	12.552159 
328.500000	12.038084 
329.000000	11.502329 
329.500000	11.097933 
330.000000	10.863407 
330.500000	10.615619 
331.000000	10.410245 
331.500000	10.138611 
332.000000	9.843991  
332.500000	9.623818  
333.000000	9.296833  
333.500000	8.980498  
334.000000	8.733296  
334.500000	8.561525  
335.000000	8.287429  
335.500000	7.935905  
336.000000	7.519230  
336.500000	6.891759  
337.000000	6.293144  
337.500000	5.495888  
338.000000	4.668772  
338.500000	4.094857  
339.000000	3.852744  
339.500000	3.839413  
340.000000	4.090367  
340.500000	4.661923  
341.000000	5.207828  
341.500000	5.845777  
342.000000	6.302488  
342.500000	6.403323  
343.000000	6.421488  
343.500000	6.361088  
344.000000	6.122000  
344.500000	5.865202  
345.000000	5.687306  
345.500000	5.358422  
346.000000	5.057640  
346.500000	4.752012  
347.000000	4.292108  
347.500000	3.871814  
348.000000	3.594480  
348.500000	3.311853  
349.000000	3.128846  
349.500000	3.235989  
350.000000	3.306705  
350.500000	3.396787  
351.000000	3.446830  
351.500000	3.438250  
352.000000	3.349488  
352.500000	3.321733  
353.000000	3.171133  
353.500000	2.976971  
354.000000	3.089780  
354.500000	3.263909  
355.000000	3.414833  
355.500000	3.510727  
356.000000	3.651064  
356.500000	3.762342  
357.000000	4.011213  
357.500000	4.096201  
358.000000	3.990184  
358.500000	3.965986  
359.000000	4.002247  
359.500000	4.050563  
360.000000	3.977148  
360.500000	3.871923  
361.000000	3.735439  
361.500000	3.743949  
362.000000	3.767042  
362.500000	3.693686  
363.000000	3.610456  
363.500000	3.592952  
364.000000	3.771127  
364.500000	3.976361  
365.000000	4.269411  
365.500000	4.474109  
366.000000	4.734507  
366.500000	5.033774  
367.000000	5.252659  
367.500000	5.349573  
368.000000	5.252362  
368.500000	5.181563  
369.000000	5.030056  
369.500000	4.990851  
370.000000	4.950855  
370.500000	4.906250  
371.000000	4.850230  
371.500000	4.841155  
372.000000	4.865548  
372.500000	4.811934  
373.000000	4.776465  
373.500000	4.621572  
374.000000	4.554253  
374.500000	4.560488  
375.000000	4.620174  
375.500000	4.629931  
376.000000	4.700239  
376.500000	4.876848  
377.000000	5.048208  
377.500000	5.259371  
378.000000	5.333912  
378.500000	5.384310  
379.000000	5.412306  
379.500000	5.384758  
380.000000	5.216319  
380.500000	5.019946  
381.000000	4.871230  
381.500000	4.698538  
382.000000	4.640984  
382.500000	4.551420  
383.000000	4.570091  
383.500000	4.670759  
384.000000	4.789509  
384.500000	4.878423  
385.000000	4.947120  
385.500000	5.002862  
386.000000	4.968644  
386.500000	4.934527  
387.000000	4.852259  
387.500000	4.798224  
388.000000	4.772127  
388.500000	4.756517  
389.000000	4.768321  
389.500000	4.788967  
390.000000	4.829606  
390.500000	4.820710  
391.000000	4.747580  
391.500000	4.616786  
392.000000	4.459425  
392.500000	4.320453  
393.000000	4.153903  
393.500000	3.992823  
394.000000	3.847609  
394.500000	3.805393  
395.000000	3.810383  
395.500000	3.790748  
396.000000	3.752283  
396.500000	3.701267  
397.000000	3.726373  
397.500000	3.777007  
398.000000	3.820052  
398.500000	3.849795  
399.000000	3.918250  
399.500000	3.975033  
400.000000	4.000492  
400.500000	3.963895  
401.000000	3.849872  
401.500000	3.747211  
402.000000	3.677433  
402.500000	3.621236  
403.000000	3.611267  
403.500000	3.651095  
404.000000	3.690108  
404.500000	3.698520  
405.000000	3.693260  
405.500000	3.656108  
406.000000	3.607658  
406.500000	3.566304  
407.000000	3.510736  
407.500000	3.498758  
408.000000	3.524422  
408.500000	3.564167  
409.000000	3.566319  
409.500000	3.557449  
410.000000	3.539582  
410.500000	3.506090  
411.000000	3.479050  
411.500000	3.449554  
412.000000	3.458378  
412.500000	3.494033  
413.000000	3.559310  
413.500000	3.600655  
414.000000	3.622514  
414.500000	3.627529  
415.000000	3.590151  
415.500000	3.525020  
416.000000	3.442264  
416.500000	3.386701  
417.000000	3.317970  
417.500000	3.250314  
418.000000	3.171807  
418.500000	3.088344  
419.000000	3.027596  
419.500000	2.964829  
420.000000	2.875252  
420.500000	2.770607  
421.000000	2.693419  
421.500000	2.643341  
422.000000	2.642786  
422.500000	2.655773  
423.000000	2.653647  
423.500000	2.657205  
424.000000	2.681101  
424.500000	2.669594  
425.000000	2.633493  
425.500000	2.573499  
426.000000	2.505246  
426.500000	2.468815  
427.000000	2.428540  
427.500000	2.388165  
428.000000	2.355043  
428.500000	2.352395  
429.000000	2.360986  
429.500000	2.379432  
430.000000	2.395152  
430.500000	2.383437  
431.000000	2.367507  
431.500000	2.328303  
432.000000	2.284075  
432.500000	2.227175  
433.000000	2.138316  
433.500000	2.023709  
434.000000	1.932961  
434.500000	1.887568  
435.000000	1.880960  
435.500000	1.918382  
436.000000	1.969512  
436.500000	2.031364  
437.000000	2.115099  
437.500000	2.160018  
438.000000	2.139129  
438.500000	2.095771  
439.000000	2.057702  
439.500000	2.037962  
440.000000	2.035036  
440.500000	2.040710  
441.000000	2.033858  
441.500000	2.047593  
442.000000	2.065528  
442.500000	2.032733  
443.000000	1.965206  
443.500000	1.883237  
444.000000	1.823031  
444.500000	1.781073  

