PE FL                   SPECTRUM    ASCII       PEDS        1.60        
  -1
PMDF2B~1
23/10/12
12:09:37.00
23/10/12
12:09:37.00


444.500000
1









LS55
10.00
5.00
5.00
SCAN
1
20
100
500
0
500
0
2
0
1
7
ON
500 450 
1 0 0
#HDR
-1
-1
#GR
NM

0.00002384185791015625
0.0
250.000000
0.500000
390
8
6.622178
-4.557377
#DATA
250.000000	-0.000000 
250.500000	-0.630272 
251.000000	-0.945226 
251.500000	-1.282701 
252.000000	-1.736907 
252.500000	-1.988756 
253.000000	-2.335673 
253.500000	-2.551405 
254.000000	-2.543955 
254.500000	-2.740535 
255.000000	-3.099337 
255.500000	-3.173448 
256.000000	-3.055040 
256.500000	-3.147825 
257.000000	-3.186730 
257.500000	-3.181413 
258.000000	-3.144677 
258.500000	-2.975462 
259.000000	-2.947455 
259.500000	-3.119332 
260.000000	-3.298304 
260.500000	-3.540785 
261.000000	-3.840589 
261.500000	-4.154567 
262.000000	-4.507336 
262.500000	-4.557377 
263.000000	-4.303434 
263.500000	-4.006152 
264.000000	-3.611546 
264.500000	-3.156297 
265.000000	-3.174922 
265.500000	-3.131878 
266.000000	-3.060045 
266.500000	-3.206040 
267.000000	-3.278956 
267.500000	-3.157413 
268.000000	-2.963471 
268.500000	-2.686870 
269.000000	-2.189152 
269.500000	-2.254847 
270.000000	-2.257336 
270.500000	-2.311874 
271.000000	-2.624997 
271.500000	-2.980967 
272.000000	-3.218860 
272.500000	-3.413565 
273.000000	-3.769229 
273.500000	-3.759517 
274.000000	-3.868471 
274.500000	-3.768611 
275.000000	-3.642775 
275.500000	-3.525711 
276.000000	-3.511483 
276.500000	-3.444571 
277.000000	-3.206605 
277.500000	-3.250811 
278.000000	-3.278421 
278.500000	-3.322317 
279.000000	-3.183772 
279.500000	-3.079720 
280.000000	-2.850151 
280.500000	-2.696038 
281.000000	-2.646915 
281.500000	-2.609185 
282.000000	-2.653182 
282.500000	-2.748134 
283.000000	-3.005907 
283.500000	-3.270808 
284.000000	-3.585097 
284.500000	-3.642230 
285.000000	-3.614716 
285.500000	-3.598574 
286.000000	-3.794474 
286.500000	-3.827870 
287.000000	-3.900754 
287.500000	-3.836559 
288.000000	-3.700561 
288.500000	-3.643347 
289.000000	-3.459058 
289.500000	-3.288835 
290.000000	-3.045055 
290.500000	-3.089898 
291.000000	-2.981964 
291.500000	-2.939490 
292.000000	-2.517092 
292.500000	-1.951762 
293.000000	-1.195423 
293.500000	-0.253242 
294.000000	0.764755  
294.500000	1.657255  
295.000000	2.175286  
295.500000	2.436062  
296.000000	2.086916  
296.500000	1.451903  
297.000000	0.549552  
297.500000	-0.391564 
298.000000	-1.317208 
298.500000	-1.848418 
299.000000	-2.158100 
299.500000	-2.265916 
300.000000	-2.268712 
300.500000	-2.285557 
301.000000	-2.162758 
301.500000	-2.041595 
302.000000	-2.034516 
302.500000	-2.300629 
303.000000	-2.351341 
303.500000	-2.297258 
304.000000	-2.132245 
304.500000	-2.044471 
305.000000	-1.828150 
305.500000	-1.495906 
306.000000	-1.007887 
306.500000	-0.654302 
307.000000	-0.427755 
307.500000	-0.225183 
308.000000	0.062924  
308.500000	0.260667  
309.000000	0.204795  
309.500000	0.108465  
310.000000	0.029522  
310.500000	0.020800  
311.000000	-0.143933 
311.500000	-0.204697 
312.000000	-0.210846 
312.500000	0.148074  
313.000000	0.376027  
313.500000	0.488687  
314.000000	0.783891  
314.500000	1.249319  
315.000000	1.669908  
315.500000	1.681818  
316.000000	1.502714  
316.500000	1.190061  
317.000000	1.082625  
317.500000	0.802534  
318.000000	0.560782  
318.500000	0.391883  
319.000000	0.639290  
319.500000	1.100890  
320.000000	1.380141  
320.500000	1.511739  
321.000000	1.678316  
321.500000	2.158001  
322.000000	2.628589  
322.500000	3.225399  
323.000000	3.845390  
323.500000	4.822001  
324.000000	5.873622  
324.500000	6.429405  
325.000000	6.622178  
325.500000	6.577432  
326.000000	6.423598  
326.500000	6.015098  
327.000000	5.429100  
327.500000	4.886523  
328.000000	4.787337  
328.500000	5.046187  
329.000000	5.222316  
329.500000	5.520371  
330.000000	5.878859  
330.500000	6.299054  
331.000000	6.523258  
331.500000	6.265064  
332.000000	5.797664  
332.500000	5.273332  
333.000000	4.776173  
333.500000	4.118571  
334.000000	3.639747  
334.500000	3.413848  
335.000000	3.478969  
335.500000	3.684853  
336.000000	3.817415  
336.500000	4.052334  
337.000000	4.311729  
337.500000	4.558144  
338.000000	4.603775  
338.500000	4.600469  
339.000000	4.600815  
339.500000	4.594938  
340.000000	4.516308  
340.500000	4.328860  
341.000000	4.173979  
341.500000	3.993957  
342.000000	3.923768  
342.500000	3.801840  
343.000000	3.666079  
343.500000	3.477741  
344.000000	3.172727  
344.500000	2.739593  
345.000000	2.325773  
345.500000	2.051088  
346.000000	1.779724  
346.500000	1.755087  
347.000000	1.942002  
347.500000	2.246059  
348.000000	2.721947  
348.500000	3.078655  
349.000000	3.178150  
349.500000	3.138695  
350.000000	3.024562  
350.500000	2.717394  
351.000000	2.378342  
351.500000	2.131472  
352.000000	1.939169  
352.500000	1.948827  
353.000000	2.097790  
353.500000	2.110088  
354.000000	2.103906  
354.500000	2.081756  
355.000000	1.898145  
355.500000	1.723202  
356.000000	1.655249  
356.500000	1.706410  
357.000000	1.842785  
357.500000	2.102800  
358.000000	2.386845  
358.500000	2.635683  
359.000000	2.847412  
359.500000	2.734360  
360.000000	2.551398  
360.500000	2.389171  
361.000000	2.239503  
361.500000	2.065876  
362.000000	1.966379  
362.500000	1.925809  
363.000000	1.902447  
363.500000	1.991860  
364.000000	1.887349  
364.500000	1.837873  
365.000000	2.004163  
365.500000	2.187432  
366.000000	2.375826  
366.500000	2.603360  
367.000000	2.865628  
367.500000	3.015641  
368.000000	3.075429  
368.500000	2.906855  
369.000000	2.680410  
369.500000	2.580426  
370.000000	2.473241  
370.500000	2.308730  
371.000000	2.247208  
371.500000	2.365247  
372.000000	2.533068  
372.500000	2.655881  
373.000000	2.723734  
373.500000	2.731515  
374.000000	2.758572  
374.500000	2.809918  
375.000000	2.772857  
375.500000	2.729137  
376.000000	2.813463  
376.500000	2.966646  
377.000000	3.114073  
377.500000	3.196368  
378.000000	3.254451  
378.500000	3.293419  
379.000000	3.276243  
379.500000	3.174039  
380.000000	3.053593  
380.500000	2.981065  
381.000000	2.958710  
381.500000	3.006382  
382.000000	3.029723  
382.500000	3.048509  
383.000000	3.065252  
383.500000	2.966612  
384.000000	2.767293  
384.500000	2.547507  
385.000000	2.377571  
385.500000	2.275136  
386.000000	2.312448  
386.500000	2.408056  
387.000000	2.572839  
387.500000	2.773491  
388.000000	2.870341  
388.500000	2.834854  
389.000000	2.683348  
389.500000	2.429269  
390.000000	2.115647  
390.500000	1.835381  
391.000000	1.669788  
391.500000	1.673026  
392.000000	1.871061  
392.500000	2.098660  
393.000000	2.312257  
393.500000	2.477603  
394.000000	2.572093  
394.500000	2.528296  
395.000000	2.381809  
395.500000	2.189400  
396.000000	2.023006  
396.500000	2.005056  
397.000000	2.065036  
397.500000	2.178487  
398.000000	2.362765  
398.500000	2.614229  
399.000000	2.826212  
399.500000	2.940546  
400.000000	2.966385  
400.500000	2.909604  
401.000000	2.855834  
401.500000	2.827158  
402.000000	2.794165  
402.500000	2.754231  
403.000000	2.793533  
403.500000	2.883223  
404.000000	2.928517  
404.500000	2.924880  
405.000000	2.870427  
405.500000	2.756050  
406.000000	2.647036  
406.500000	2.504580  
407.000000	2.337609  
407.500000	2.222850  
408.000000	2.215276  
408.500000	2.237480  
409.000000	2.255123  
409.500000	2.323185  
410.000000	2.404724  
410.500000	2.503142  
411.000000	2.598348  
411.500000	2.660585  
412.000000	2.694653  
412.500000	2.745972  
413.000000	2.753793  
413.500000	2.679256  
414.000000	2.608924  
414.500000	2.545957  
415.000000	2.483684  
415.500000	2.439679  
416.000000	2.455624  
416.500000	2.501592  
417.000000	2.612809  
417.500000	2.694980  
418.000000	2.709436  
418.500000	2.700628  
419.000000	2.676041  
419.500000	2.602373  
420.000000	2.495752  
420.500000	2.401675  
421.000000	2.309736  
421.500000	2.283332  
422.000000	2.263386  
422.500000	2.243308  
423.000000	2.218797  
423.500000	2.201414  
424.000000	2.173008  
424.500000	2.110816  
425.000000	2.022022  
425.500000	1.914025  
426.000000	1.824917  
426.500000	1.760607  
427.000000	1.712783  
427.500000	1.683837  
428.000000	1.714044  
428.500000	1.787228  
429.000000	1.878826  
429.500000	1.958956  
430.000000	2.016886  
430.500000	2.031431  
431.000000	2.014462  
431.500000	1.965456  
432.000000	1.882969  
432.500000	1.796130  
433.000000	1.730986  
433.500000	1.699840  
434.000000	1.687287  
434.500000	1.703385  
435.000000	1.729326  
435.500000	1.766931  
436.000000	1.818401  
436.500000	1.855693  
437.000000	1.879499  
437.500000	1.893898  
438.000000	1.905592  
438.500000	1.895145  
439.000000	1.866837  
439.500000	1.826970  
440.000000	1.771404  
440.500000	1.718946  
441.000000	1.667974  
441.500000	1.641292  
442.000000	1.637192  
442.500000	1.655964  
443.000000	1.693196  
443.500000	1.750433  
444.000000	1.835327  
444.500000	1.903936  

