PE FL                   SPECTRUM    ASCII       PEDS        1.60        
  -1
PP9C0D~1
23/10/10
14:56:35.00
23/10/10
14:56:35.00


444.500000
1









LS55
50.00
5.00
5.00
SCAN
1
20
100
100
0
500
0
2
0
1
7
ON
500 450 
1 0 0
#HDR
-1
-1
#GR
NM

0.00002384185791015625
0.0
250.000000
0.500000
390
8
3.249518
-4.346863
#DATA
250.000000	-0.688000 
250.500000	-2.188932 
251.000000	-3.477265 
251.500000	-4.108919 
252.000000	-4.346863 
252.500000	-4.018260 
253.000000	-3.107510 
253.500000	-1.862623 
254.000000	-0.480836 
254.500000	0.796135  
255.000000	1.818770  
255.500000	2.445354  
256.000000	2.843935  
256.500000	2.580353  
257.000000	1.812889  
257.500000	1.011195  
258.000000	0.115058  
258.500000	-0.708699 
259.000000	-1.575039 
259.500000	-2.493569 
260.000000	-3.169683 
260.500000	-3.208130 
261.000000	-3.146571 
261.500000	-3.129427 
262.000000	-2.729398 
262.500000	-2.272681 
263.000000	-1.858113 
263.500000	-1.479924 
264.000000	-1.303083 
264.500000	-1.314486 
265.000000	-1.405294 
265.500000	-1.443450 
266.000000	-1.677799 
266.500000	-1.439769 
267.000000	-1.239267 
267.500000	-1.040319 
268.000000	-0.380480 
268.500000	0.512848  
269.000000	1.298833  
269.500000	1.754491  
270.000000	1.976743  
270.500000	1.616530  
271.000000	1.266278  
271.500000	0.513639  
272.000000	-0.662065 
272.500000	-1.876827 
273.000000	-2.607473 
273.500000	-2.929149 
274.000000	-3.001481 
274.500000	-2.626138 
275.000000	-2.073959 
275.500000	-1.232861 
276.000000	-0.417418 
276.500000	0.281146  
277.000000	0.846720  
277.500000	1.379663  
278.000000	1.505587  
278.500000	1.338425  
279.000000	0.807532  
279.500000	0.133020  
280.000000	-0.635840 
280.500000	-1.447461 
281.000000	-2.106726 
281.500000	-2.505312 
282.000000	-2.350300 
282.500000	-1.902516 
283.000000	-1.375648 
283.500000	-1.155242 
284.000000	-1.023736 
284.500000	-0.478611 
285.000000	-0.118993 
285.500000	0.274057  
286.000000	0.525639  
286.500000	0.908815  
287.000000	1.336837  
287.500000	1.782040  
288.000000	1.628809  
288.500000	0.843704  
289.000000	0.301671  
289.500000	-0.281920 
290.000000	-0.673223 
290.500000	-1.024082 
291.000000	-1.131009 
291.500000	-0.968645 
292.000000	-0.244647 
292.500000	0.235610  
293.000000	0.360340  
293.500000	0.485502  
294.000000	0.613483  
294.500000	0.521273  
295.000000	0.250590  
295.500000	-0.158612 
296.000000	-0.417547 
296.500000	-0.195654 
297.000000	0.044892  
297.500000	0.284256  
298.000000	0.558953  
298.500000	1.260271  
299.000000	1.871125  
299.500000	2.419622  
300.000000	2.545395  
300.500000	2.530382  
301.000000	2.437229  
301.500000	2.071234  
302.000000	1.462789  
302.500000	0.615882  
303.000000	0.062478  
303.500000	-0.236847 
304.000000	-0.124708 
304.500000	0.162194  
305.000000	0.691134  
305.500000	1.296075  
306.000000	2.023325  
306.500000	2.635980  
307.000000	2.944844  
307.500000	2.931677  
308.000000	2.504443  
308.500000	2.064772  
309.000000	1.604380  
309.500000	0.975989  
310.000000	0.225575  
310.500000	-0.559852 
311.000000	-1.137779 
311.500000	-1.346791 
312.000000	-1.197585 
312.500000	-0.769282 
313.000000	0.221841  
313.500000	1.395263  
314.000000	2.493351  
314.500000	3.070176  
315.000000	3.249518  
315.500000	3.040298  
316.000000	2.559052  
316.500000	1.900774  
317.000000	1.022256  
317.500000	0.459909  
318.000000	0.110873  
318.500000	-0.018580 
319.000000	-0.347992 
319.500000	-0.652586 
320.000000	-0.907319 
320.500000	-1.086136 
321.000000	-1.203955 
321.500000	-1.363493 
322.000000	-1.385714 
322.500000	-1.155853 
323.000000	-0.667268 
323.500000	-0.443837 
324.000000	-0.380041 
324.500000	-0.495643 
325.000000	-0.668683 
325.500000	-0.724056 
326.000000	-0.841518 
326.500000	-1.042146 
327.000000	-0.874587 
327.500000	-0.385757 
328.000000	0.186128  
328.500000	0.744889  
329.000000	1.153627  
329.500000	1.405864  
330.000000	1.636526  
330.500000	1.668056  
331.000000	1.303629  
331.500000	1.081998  
332.000000	0.912499  
332.500000	0.764174  
333.000000	0.621687  
333.500000	0.559181  
334.000000	0.386834  
334.500000	0.172082  
335.000000	-0.073172 
335.500000	-0.559640 
336.000000	-0.777601 
336.500000	-0.954040 
337.000000	-1.103274 
337.500000	-1.173817 
338.000000	-1.042896 
338.500000	-0.850778 
339.000000	-0.711818 
339.500000	-0.463274 
340.000000	-0.236235 
340.500000	0.195263  
341.000000	0.562178  
341.500000	0.798703  
342.000000	0.879198  
342.500000	0.887571  
343.000000	0.789413  
343.500000	0.453711  
344.000000	0.109890  
344.500000	-0.208199 
345.000000	-0.359230 
345.500000	-0.340605 
346.000000	-0.244795 
346.500000	-0.091332 
347.000000	0.187438  
347.500000	0.559841  
348.000000	0.777727  
348.500000	0.884648  
349.000000	0.941106  
349.500000	0.970536  
350.000000	1.019690  
350.500000	1.018153  
351.000000	0.953831  
351.500000	0.826894  
352.000000	0.761256  
352.500000	0.761403  
353.000000	0.629635  
353.500000	0.491260  
354.000000	0.347569  
354.500000	0.270800  
355.000000	0.220388  
355.500000	0.203899  
356.000000	0.185910  
356.500000	0.203239  
357.000000	0.296312  
357.500000	0.339253  
358.000000	0.415568  
358.500000	0.497631  
359.000000	0.550799  
359.500000	0.570109  
360.000000	0.621158  
360.500000	0.703350  
361.000000	0.801238  
361.500000	0.882285  
362.000000	0.952479  
362.500000	1.030188  
363.000000	1.114578  
363.500000	1.147441  
364.000000	1.123444  
364.500000	1.040959  
365.000000	0.990244  
365.500000	1.042499  
366.000000	1.113433  
366.500000	1.253280  
367.000000	1.399738  
367.500000	1.637321  
368.000000	1.919489  
368.500000	2.127600  
369.000000	2.247130  
369.500000	2.254091  
370.000000	2.072563  
370.500000	1.860808  
371.000000	1.620977  
371.500000	1.333256  
372.000000	1.041219  
372.500000	0.891016  
373.000000	0.806347  
373.500000	0.798058  
374.000000	0.915565  
374.500000	1.006272  
375.000000	1.178800  
375.500000	1.403951  
376.000000	1.594691  
376.500000	1.691485  
377.000000	1.825258  
377.500000	1.935475  
378.000000	2.023908  
378.500000	2.083161  
379.000000	2.023284  
379.500000	1.873096  
380.000000	1.729792  
380.500000	1.575160  
381.000000	1.371347  
381.500000	1.237774  
382.000000	1.175481  
382.500000	1.230093  
383.000000	1.329518  
383.500000	1.463151  
384.000000	1.577168  
384.500000	1.689027  
385.000000	1.739745  
385.500000	1.754589  
386.000000	1.751873  
386.500000	1.722287  
387.000000	1.745008  
387.500000	1.788255  
388.000000	1.838921  
388.500000	1.927038  
389.000000	1.969957  
389.500000	1.917129  
390.000000	1.866253  
390.500000	1.832146  
391.000000	1.774359  
391.500000	1.723986  
392.000000	1.642640  
392.500000	1.550563  
393.000000	1.530502  
393.500000	1.498128  
394.000000	1.401503  
394.500000	1.325461  
395.000000	1.326513  
395.500000	1.345636  
396.000000	1.400611  
396.500000	1.447737  
397.000000	1.496940  
397.500000	1.566378  
398.000000	1.619365  
398.500000	1.611017  
399.000000	1.551309  
399.500000	1.539836  
400.000000	1.521669  
400.500000	1.504886  
401.000000	1.450673  
401.500000	1.418952  
402.000000	1.397771  
402.500000	1.384189  
403.000000	1.377830  
403.500000	1.348777  
404.000000	1.347930  
404.500000	1.347258  
405.000000	1.319229  
405.500000	1.250870  
406.000000	1.193878  
406.500000	1.130535  
407.000000	1.073175  
407.500000	1.051800  
408.000000	1.049112  
408.500000	1.036046  
409.000000	1.005083  
409.500000	0.962174  
410.000000	0.912260  
410.500000	0.887457  
411.000000	0.868078  
411.500000	0.862774  
412.000000	0.883945  
412.500000	0.929093  
413.000000	0.970306  
413.500000	0.978962  
414.000000	0.948132  
414.500000	0.889105  
415.000000	0.827772  
415.500000	0.752951  
416.000000	0.697875  
416.500000	0.679334  
417.000000	0.701118  
417.500000	0.755989  
418.000000	0.815098  
418.500000	0.853669  
419.000000	0.856551  
419.500000	0.856027  
420.000000	0.794219  
420.500000	0.700601  
421.000000	0.591320  
421.500000	0.500537  
422.000000	0.453305  
422.500000	0.447300  
423.000000	0.468586  
423.500000	0.474859  
424.000000	0.507349  
424.500000	0.509389  
425.000000	0.453386  
425.500000	0.378463  
426.000000	0.313073  
426.500000	0.282617  
427.000000	0.304870  
427.500000	0.385657  
428.000000	0.484377  
428.500000	0.607323  
429.000000	0.709188  
429.500000	0.735310  
430.000000	0.722256  
430.500000	0.670914  
431.000000	0.581111  
431.500000	0.487516  
432.000000	0.438823  
432.500000	0.436753  
433.000000	0.481470  
433.500000	0.547972  
434.000000	0.596174  
434.500000	0.637163  
435.000000	0.669310  
435.500000	0.670745  
436.000000	0.628570  
436.500000	0.585113  
437.000000	0.539154  
437.500000	0.495861  
438.000000	0.466381  
438.500000	0.440419  
439.000000	0.405395  
439.500000	0.395307  
440.000000	0.403828  
440.500000	0.399545  
441.000000	0.408349  
441.500000	0.436380  
442.000000	0.464491  
442.500000	0.503310  
443.000000	0.529479  
443.500000	0.499852  
444.000000	0.463330  
444.500000	0.436309  

