PE FL                   SPECTRUM    ASCII       PEDS        1.60        
  -1
PP9C85~1
23/10/10
14:55:14.00
23/10/10
14:55:14.00


444.500000
1









LS55
40.00
5.00
5.00
SCAN
1
20
100
100
0
500
0
2
0
1
7
ON
500 450 
1 0 0
#HDR
-1
-1
#GR
NM

0.00002384185791015625
0.0
250.000000
0.500000
390
8
3.785009
-5.031401
#DATA
250.000000	-5.000000 
250.500000	-3.926655 
251.000000	-3.103188 
251.500000	-2.415137 
252.000000	-1.881486 
252.500000	-1.783563 
253.000000	-1.891160 
253.500000	-2.343709 
254.000000	-3.081453 
254.500000	-3.970402 
255.000000	-4.583550 
255.500000	-4.967956 
256.000000	-5.031401 
256.500000	-4.744652 
257.000000	-4.569304 
257.500000	-4.221748 
258.000000	-3.637160 
258.500000	-3.279004 
259.000000	-3.293371 
259.500000	-2.817702 
260.000000	-2.036285 
260.500000	-0.999958 
261.000000	-0.018190 
261.500000	0.565697  
262.000000	0.988272  
262.500000	1.466498  
263.000000	1.133379  
263.500000	0.205489  
264.000000	-0.512863 
264.500000	-1.029241 
265.000000	-1.347354 
265.500000	-1.419660 
266.000000	-1.478959 
266.500000	-1.398704 
267.000000	-0.975660 
267.500000	-1.331382 
268.000000	-2.212510 
268.500000	-2.948830 
269.000000	-3.420761 
269.500000	-3.722958 
270.000000	-3.910693 
270.500000	-3.653857 
271.000000	-2.519766 
271.500000	-0.754927 
272.000000	0.741414  
272.500000	1.766843  
273.000000	2.639903  
273.500000	3.304343  
274.000000	3.785009  
274.500000	3.717995  
275.000000	3.122938  
275.500000	2.715368  
276.000000	2.493932  
276.500000	2.253473  
277.000000	1.433319  
277.500000	0.365041  
278.000000	-0.717417 
278.500000	-1.339795 
279.000000	-1.820239 
279.500000	-2.590789 
280.000000	-2.852149 
280.500000	-2.774774 
281.000000	-2.420560 
281.500000	-2.265803 
282.000000	-2.205571 
282.500000	-1.848287 
283.000000	-1.160761 
283.500000	-0.182700 
284.000000	0.469553  
284.500000	1.282407  
285.000000	1.939713  
285.500000	2.450042  
286.000000	2.236535  
286.500000	1.442099  
287.000000	0.711831  
287.500000	0.114468  
288.000000	-0.198540 
288.500000	-0.871229 
289.000000	-1.231945 
289.500000	-1.484332 
290.000000	-1.228969 
290.500000	-0.994154 
291.000000	-0.757247 
291.500000	-0.396229 
292.000000	-0.001385 
292.500000	0.496683  
293.000000	0.432908  
293.500000	0.176992  
294.000000	-0.361479 
294.500000	-0.678397 
295.000000	-1.059877 
295.500000	-1.245051 
296.000000	-1.131285 
296.500000	-0.816333 
297.000000	-0.385533 
297.500000	-0.333043 
298.000000	-0.374928 
298.500000	-0.582583 
299.000000	-0.818518 
299.500000	-1.233407 
300.000000	-1.415016 
300.500000	-1.194417 
301.000000	-0.838659 
301.500000	-0.409572 
302.000000	-0.238222 
302.500000	-0.149075 
303.000000	0.060516  
303.500000	0.282289  
304.000000	0.217866  
304.500000	0.149680  
305.000000	0.077919  
305.500000	-0.018188 
306.000000	-0.080563 
306.500000	-0.317791 
307.000000	-0.607892 
307.500000	-0.731122 
308.000000	-0.675709 
308.500000	-0.446050 
309.000000	-0.139102 
309.500000	0.163486  
310.000000	0.292260  
310.500000	0.589648  
311.000000	0.679921  
311.500000	0.548678  
312.000000	0.143059  
312.500000	-0.231764 
313.000000	-0.129390 
313.500000	0.113937  
314.000000	0.348281  
314.500000	0.440068  
315.000000	0.794341  
315.500000	1.182152  
316.000000	1.558637  
316.500000	1.533024  
317.000000	1.120629  
317.500000	0.824643  
318.000000	0.389814  
318.500000	-0.015196 
319.000000	-0.539160 
319.500000	-0.847508 
320.000000	-0.934364 
320.500000	-0.471736 
321.000000	0.231082  
321.500000	0.936122  
322.000000	1.700940  
322.500000	2.364115  
323.000000	2.785982  
323.500000	2.974020  
324.000000	2.883414  
324.500000	2.591787  
325.000000	2.333244  
325.500000	2.171562  
326.000000	1.955069  
326.500000	1.820534  
327.000000	1.692187  
327.500000	1.424069  
328.000000	1.204316  
328.500000	0.953954  
329.000000	0.750196  
329.500000	0.559785  
330.000000	0.465286  
330.500000	0.360080  
331.000000	0.353982  
331.500000	0.441036  
332.000000	0.417363  
332.500000	0.398271  
333.000000	0.324980  
333.500000	0.460246  
334.000000	0.655694  
334.500000	0.880606  
335.000000	1.074895  
335.500000	1.322147  
336.000000	1.606596  
336.500000	1.799690  
337.000000	1.849310  
337.500000	1.794976  
338.000000	1.822803  
338.500000	1.920247  
339.000000	1.960614  
339.500000	1.978010  
340.000000	2.019525  
340.500000	2.082421  
341.000000	2.157109  
341.500000	2.081038  
342.000000	1.869997  
342.500000	1.741127  
343.000000	1.707602  
343.500000	1.684300  
344.000000	1.654832  
344.500000	1.705771  
345.000000	1.883765  
345.500000	2.142866  
346.000000	2.253670  
346.500000	2.169675  
347.000000	2.018845  
347.500000	1.824894  
348.000000	1.701060  
348.500000	1.536359  
349.000000	1.335518  
349.500000	1.337028  
350.000000	1.540418  
350.500000	1.761500  
351.000000	1.930053  
351.500000	2.127733  
352.000000	2.335555  
352.500000	2.524877  
353.000000	2.591982  
353.500000	2.350393  
354.000000	2.019647  
354.500000	1.781665  
355.000000	1.488889  
355.500000	1.193434  
356.000000	1.009717  
356.500000	1.053290  
357.000000	1.258721  
357.500000	1.609570  
358.000000	1.967632  
358.500000	2.288046  
359.000000	2.630355  
359.500000	2.857623  
360.000000	2.916402  
360.500000	2.703776  
361.000000	2.405391  
361.500000	2.070954  
362.000000	1.726961  
362.500000	1.448606  
363.000000	1.226201  
363.500000	1.088847  
364.000000	1.080244  
364.500000	1.227058  
365.000000	1.403488  
365.500000	1.513296  
366.000000	1.582757  
366.500000	1.567741  
367.000000	1.472389  
367.500000	1.314953  
368.000000	1.081906  
368.500000	0.882996  
369.000000	0.757970  
369.500000	0.728179  
370.000000	0.658385  
370.500000	0.672694  
371.000000	0.730416  
371.500000	0.864734  
372.000000	1.034977  
372.500000	1.168698  
373.000000	1.289946  
373.500000	1.304436  
374.000000	1.302520  
374.500000	1.257130  
375.000000	1.171772  
375.500000	1.060981  
376.000000	0.964583  
376.500000	0.894916  
377.000000	0.845612  
377.500000	0.758778  
378.000000	0.631480  
378.500000	0.512135  
379.000000	0.442682  
379.500000	0.432167  
380.000000	0.474698  
380.500000	0.557945  
381.000000	0.706175  
381.500000	0.924941  
382.000000	1.082631  
382.500000	1.133156  
383.000000	1.063788  
383.500000	0.964575  
384.000000	0.851868  
384.500000	0.779886  
385.000000	0.725225  
385.500000	0.733785  
386.000000	0.836405  
386.500000	0.960654  
387.000000	1.058363  
387.500000	1.102298  
388.000000	1.068244  
388.500000	1.028949  
389.000000	0.992078  
389.500000	0.921230  
390.000000	0.860332  
390.500000	0.807494  
391.000000	0.784732  
391.500000	0.744796  
392.000000	0.691609  
392.500000	0.609418  
393.000000	0.539404  
393.500000	0.536674  
394.000000	0.560046  
394.500000	0.567287  
395.000000	0.609029  
395.500000	0.700762  
396.000000	0.793343  
396.500000	0.903877  
397.000000	0.989324  
397.500000	1.034077  
398.000000	1.061527  
398.500000	1.085966  
399.000000	1.039347  
399.500000	0.936692  
400.000000	0.826866  
400.500000	0.666876  
401.000000	0.508304  
401.500000	0.415870  
402.000000	0.351094  
402.500000	0.322825  
403.000000	0.333283  
403.500000	0.417036  
404.000000	0.527646  
404.500000	0.637056  
405.000000	0.696938  
405.500000	0.740422  
406.000000	0.791620  
406.500000	0.798080  
407.000000	0.731086  
407.500000	0.574774  
408.000000	0.427832  
408.500000	0.309133  
409.000000	0.202263  
409.500000	0.129421  
410.000000	0.093655  
410.500000	0.134454  
411.000000	0.223995  
411.500000	0.337603  
412.000000	0.449789  
412.500000	0.549494  
413.000000	0.663027  
413.500000	0.710287  
414.000000	0.756425  
414.500000	0.796835  
415.000000	0.796242  
415.500000	0.784625  
416.000000	0.735317  
416.500000	0.707300  
417.000000	0.648947  
417.500000	0.590782  
418.000000	0.508575  
418.500000	0.475478  
419.000000	0.502893  
419.500000	0.510285  
420.000000	0.523380  
420.500000	0.510086  
421.000000	0.513034  
421.500000	0.509867  
422.000000	0.499912  
422.500000	0.449343  
423.000000	0.402063  
423.500000	0.394737  
424.000000	0.384672  
424.500000	0.386419  
425.000000	0.380561  
425.500000	0.383076  
426.000000	0.401592  
426.500000	0.416164  
427.000000	0.417120  
427.500000	0.425588  
428.000000	0.449653  
428.500000	0.473499  
429.000000	0.493955  
429.500000	0.483828  
430.000000	0.461870  
430.500000	0.430270  
431.000000	0.389103  
431.500000	0.334679  
432.000000	0.296540  
432.500000	0.267031  
433.000000	0.261961  
433.500000	0.290052  
434.000000	0.319320  
434.500000	0.367829  
435.000000	0.430514  
435.500000	0.484463  
436.000000	0.509097  
436.500000	0.532228  
437.000000	0.530808  
437.500000	0.521258  
438.000000	0.512782  
438.500000	0.489508  
439.000000	0.455285  
439.500000	0.417961  
440.000000	0.413802  
440.500000	0.400967  
441.000000	0.407686  
441.500000	0.410318  
442.000000	0.412747  
442.500000	0.421701  
443.000000	0.432894  
443.500000	0.431419  
444.000000	0.411418  
444.500000	0.413198  

