PE FL                   SPECTRUM    ASCII       PEDS        1.60        
  -1
PP9C25~1
23/10/10
14:51:11.00
23/10/10
14:51:11.00


444.500000
1









LS55
10.00
5.00
5.00
SCAN
1
20
100
100
0
500
0
2
0
1
7
ON
500 450 
1 0 0
#HDR
-1
-1
#GR
NM

0.00002384185791015625
0.0
250.000000
0.500000
390
8
18.420000
-4.425928
#DATA
250.000000	18.420000 
250.500000	11.119588 
251.000000	5.029112  
251.500000	0.857875  
252.000000	-2.182433 
252.500000	-3.829319 
253.000000	-3.777586 
253.500000	-2.601839 
254.000000	-1.659102 
254.500000	-1.247601 
255.000000	-1.467843 
255.500000	-1.426089 
256.000000	-0.994614 
256.500000	-1.109529 
257.000000	-1.265223 
257.500000	-1.120359 
258.000000	-0.725659 
258.500000	-0.676485 
259.000000	-0.824319 
259.500000	-1.315821 
260.000000	-1.872614 
260.500000	-2.027606 
261.000000	-2.531870 
261.500000	-2.985870 
262.000000	-3.330285 
262.500000	-3.398447 
263.000000	-3.236133 
263.500000	-3.061143 
264.000000	-3.052196 
264.500000	-3.420359 
265.000000	-3.640720 
265.500000	-3.876099 
266.000000	-4.188682 
266.500000	-4.425928 
267.000000	-4.414000 
267.500000	-4.120443 
268.000000	-3.762579 
268.500000	-3.326490 
269.000000	-3.206928 
269.500000	-3.096684 
270.000000	-2.909395 
270.500000	-2.703753 
271.000000	-2.306036 
271.500000	-1.946381 
272.000000	-1.287175 
272.500000	-0.510457 
273.000000	0.316456  
273.500000	0.748917  
274.000000	0.731455  
274.500000	0.266827  
275.000000	-0.611161 
275.500000	-1.379855 
276.000000	-2.133983 
276.500000	-2.443531 
277.000000	-2.340906 
277.500000	-1.784432 
278.000000	-0.920901 
278.500000	-0.026081 
279.000000	0.305997  
279.500000	0.279179  
280.000000	0.034956  
280.500000	-0.313559 
281.000000	-0.662707 
281.500000	-1.023308 
282.000000	-1.153755 
282.500000	-1.148283 
283.000000	-0.950850 
283.500000	-0.707293 
284.000000	-0.573696 
284.500000	-0.808684 
285.000000	-0.857290 
285.500000	-0.601758 
286.000000	-0.343756 
286.500000	0.143398  
287.000000	0.625131  
287.500000	1.234572  
288.000000	1.960025  
288.500000	2.517475  
289.000000	2.434067  
289.500000	1.778058  
290.000000	1.460496  
290.500000	0.978663  
291.000000	0.598642  
291.500000	0.050188  
292.000000	-0.624287 
292.500000	-0.995816 
293.000000	-0.977214 
293.500000	-1.050313 
294.000000	-1.656734 
294.500000	-1.810132 
295.000000	-1.550003 
295.500000	-0.863427 
296.000000	-0.262050 
296.500000	0.284285  
297.000000	0.649505  
297.500000	1.157725  
298.000000	1.530523  
298.500000	1.262416  
299.000000	0.772134  
299.500000	0.278581  
300.000000	-0.092835 
300.500000	-0.542699 
301.000000	-0.863263 
301.500000	-1.132839 
302.000000	-1.077720 
302.500000	-0.839009 
303.000000	-0.510418 
303.500000	-0.139395 
304.000000	0.364728  
304.500000	0.948973  
305.000000	1.172262  
305.500000	1.280103  
306.000000	1.113912  
306.500000	0.959953  
307.000000	0.861232  
307.500000	0.603527  
308.000000	0.329600  
308.500000	0.212855  
309.000000	0.248729  
309.500000	0.212428  
310.000000	0.280112  
310.500000	0.250077  
311.000000	0.448242  
311.500000	0.815994  
312.000000	1.325701  
312.500000	1.642446  
313.000000	1.866054  
313.500000	1.974067  
314.000000	1.820717  
314.500000	1.441019  
315.000000	0.898538  
315.500000	0.506722  
316.000000	0.107375  
316.500000	0.000322  
317.000000	-0.044038 
317.500000	0.093242  
318.000000	0.361313  
318.500000	0.664834  
319.000000	0.767118  
319.500000	0.975981  
320.000000	1.423716  
320.500000	1.578633  
321.000000	1.786981  
321.500000	1.837831  
322.000000	1.797274  
322.500000	1.797996  
323.000000	1.746444  
323.500000	1.408318  
324.000000	1.205937  
324.500000	1.231990  
325.000000	1.194957  
325.500000	1.147265  
326.000000	1.011486  
326.500000	0.820711  
327.000000	0.775564  
327.500000	0.834412  
328.000000	0.852309  
328.500000	1.031252  
329.000000	1.456936  
329.500000	2.037660  
330.000000	2.624023  
330.500000	3.013162  
331.000000	3.189479  
331.500000	3.236302  
332.000000	3.202037  
332.500000	2.962722  
333.000000	2.691128  
333.500000	2.408427  
334.000000	2.292831  
334.500000	2.214407  
335.000000	2.143535  
335.500000	2.026051  
336.000000	1.830467  
336.500000	1.721249  
337.000000	1.628465  
337.500000	1.509960  
338.000000	1.345855  
338.500000	1.317833  
339.000000	1.328569  
339.500000	1.391497  
340.000000	1.377441  
340.500000	1.303107  
341.000000	1.271456  
341.500000	1.220284  
342.000000	1.087542  
342.500000	0.891821  
343.000000	0.919147  
343.500000	1.054760  
344.000000	1.313745  
344.500000	1.494285  
345.000000	1.602410  
345.500000	1.704632  
346.000000	1.692996  
346.500000	1.570325  
347.000000	1.386472  
347.500000	1.343338  
348.000000	1.370817  
348.500000	1.457765  
349.000000	1.536270  
349.500000	1.690480  
350.000000	1.902026  
350.500000	2.036496  
351.000000	2.047972  
351.500000	2.056045  
352.000000	2.139939  
352.500000	2.225246  
353.000000	2.315150  
353.500000	2.345758  
354.000000	2.290573  
354.500000	2.165245  
355.000000	2.022466  
355.500000	1.765372  
356.000000	1.600435  
356.500000	1.559444  
357.000000	1.646953  
357.500000	1.902003  
358.000000	2.210663  
358.500000	2.510108  
359.000000	2.654707  
359.500000	2.824188  
360.000000	2.832609  
360.500000	2.743222  
361.000000	2.632132  
361.500000	2.502925  
362.000000	2.511646  
362.500000	2.532473  
363.000000	2.623581  
363.500000	2.662379  
364.000000	2.733585  
364.500000	2.753815  
365.000000	2.674379  
365.500000	2.505398  
366.000000	2.221932  
366.500000	1.948798  
367.000000	1.560110  
367.500000	1.269146  
368.000000	1.088340  
368.500000	1.015755  
369.000000	1.130181  
369.500000	1.369137  
370.000000	1.664599  
370.500000	1.935814  
371.000000	2.178325  
371.500000	2.280604  
372.000000	2.314461  
372.500000	2.315098  
373.000000	2.208180  
373.500000	2.086838  
374.000000	2.025322  
374.500000	2.001621  
375.000000	1.951607  
375.500000	1.859544  
376.000000	1.812127  
376.500000	1.751080  
377.000000	1.787252  
377.500000	1.868408  
378.000000	1.999928  
378.500000	2.187929  
379.000000	2.382751  
379.500000	2.518220  
380.000000	2.516095  
380.500000	2.473243  
381.000000	2.287243  
381.500000	2.125465  
382.000000	1.986369  
382.500000	1.880778  
383.000000	1.831597  
383.500000	1.825423  
384.000000	1.837999  
384.500000	1.851314  
385.000000	1.912036  
385.500000	1.908946  
386.000000	1.891165  
386.500000	1.859038  
387.000000	1.894775  
387.500000	1.948214  
388.000000	1.970740  
388.500000	1.950659  
389.000000	1.946747  
389.500000	1.964656  
390.000000	1.960911  
390.500000	1.918505  
391.000000	1.850747  
391.500000	1.830252  
392.000000	1.837109  
392.500000	1.895496  
393.000000	1.903142  
393.500000	1.944696  
394.000000	2.003805  
394.500000	2.082120  
395.000000	2.169965  
395.500000	2.213289  
396.000000	2.230422  
396.500000	2.186703  
397.000000	2.135445  
397.500000	2.023958  
398.000000	1.941030  
398.500000	1.858548  
399.000000	1.789832  
399.500000	1.791087  
400.000000	1.836328  
400.500000	1.884662  
401.000000	1.911870  
401.500000	1.910428  
402.000000	1.828766  
402.500000	1.757373  
403.000000	1.671709  
403.500000	1.580256  
404.000000	1.526021  
404.500000	1.538202  
405.000000	1.589333  
405.500000	1.687764  
406.000000	1.800308  
406.500000	1.848689  
407.000000	1.878464  
407.500000	1.937874  
408.000000	1.970200  
408.500000	1.982281  
409.000000	2.000708  
409.500000	1.995421  
410.000000	1.985786  
410.500000	1.984742  
411.000000	1.895549  
411.500000	1.781939  
412.000000	1.687712  
412.500000	1.627105  
413.000000	1.590880  
413.500000	1.589468  
414.000000	1.602250  
414.500000	1.638768  
415.000000	1.716283  
415.500000	1.744743  
416.000000	1.745825  
416.500000	1.712185  
417.000000	1.695853  
417.500000	1.664248  
418.000000	1.598870  
418.500000	1.514315  
419.000000	1.472424  
419.500000	1.470239  
420.000000	1.458817  
420.500000	1.461311  
421.000000	1.444965  
421.500000	1.493349  
422.000000	1.553241  
422.500000	1.595833  
423.000000	1.622422  
423.500000	1.680997  
424.000000	1.750987  
424.500000	1.819520  
425.000000	1.825202  
425.500000	1.787465  
426.000000	1.755664  
426.500000	1.708892  
427.000000	1.612692  
427.500000	1.496418  
428.000000	1.407750  
428.500000	1.359308  
429.000000	1.371051  
429.500000	1.371473  
430.000000	1.369987  
430.500000	1.402256  
431.000000	1.447570  
431.500000	1.461461  
432.000000	1.462304  
432.500000	1.450912  
433.000000	1.443709  
433.500000	1.474203  
434.000000	1.495775  
434.500000	1.493005  
435.000000	1.504906  
435.500000	1.540631  
436.000000	1.555119  
436.500000	1.549664  
437.000000	1.522605  
437.500000	1.483222  
438.000000	1.461093  
438.500000	1.450741  
439.000000	1.433518  
439.500000	1.417469  
440.000000	1.424406  
440.500000	1.426563  
441.000000	1.419622  
441.500000	1.405940  
442.000000	1.381058  
442.500000	1.347087  
443.000000	1.323516  
443.500000	1.318311  
444.000000	1.315519  
444.500000	1.336228  

