PE FL                   SPECTRUM    ASCII       PEDS        1.60        
  -1
PP9C55~1
23/10/10
14:53:12.00
23/10/10
14:53:12.00


444.500000
1









LS55
25.00
5.00
5.00
SCAN
1
20
100
100
0
500
0
2
0
1
7
ON
500 450 
1 0 0
#HDR
-1
-1
#GR
NM

0.00002384185791015625
0.0
250.000000
0.500000
390
8
5.377336
-4.999999
#DATA
250.000000	-4.999999 
250.500000	-3.201010 
251.000000	-1.833789 
251.500000	-0.851283 
252.000000	-0.234286 
252.500000	0.329383  
253.000000	0.301851  
253.500000	-0.354946 
254.000000	-1.311601 
254.500000	-2.303020 
255.000000	-3.065063 
255.500000	-3.675196 
256.000000	-4.046605 
256.500000	-4.289019 
257.000000	-4.147667 
257.500000	-3.735579 
258.000000	-3.297751 
258.500000	-2.807330 
259.000000	-2.279459 
259.500000	-1.758341 
260.000000	-1.346516 
260.500000	-0.903379 
261.000000	-0.729286 
261.500000	-0.612339 
262.000000	-0.394237 
262.500000	-0.364868 
263.000000	-0.292672 
263.500000	0.137594  
264.000000	0.641940  
264.500000	0.882264  
265.000000	0.852735  
265.500000	0.741174  
266.000000	0.565749  
266.500000	0.609260  
267.000000	0.520696  
267.500000	0.479975  
268.000000	0.995660  
268.500000	1.671043  
269.000000	2.047164  
269.500000	2.072236  
270.000000	1.936744  
270.500000	1.355929  
271.000000	0.954994  
271.500000	0.566159  
272.000000	0.241410  
272.500000	0.340661  
273.000000	0.803815  
273.500000	1.314116  
274.000000	1.776941  
274.500000	2.261695  
275.000000	2.407735  
275.500000	2.557660  
276.000000	2.566058  
276.500000	2.613571  
277.000000	2.802520  
277.500000	3.187997  
278.000000	3.441386  
278.500000	3.721517  
279.000000	3.751392  
279.500000	3.547810  
280.000000	3.164718  
280.500000	2.599671  
281.000000	2.000214  
281.500000	1.404786  
282.000000	0.928456  
282.500000	0.601748  
283.000000	0.473237  
283.500000	0.314130  
284.000000	0.323648  
284.500000	0.514336  
285.000000	0.473967  
285.500000	0.490982  
286.000000	0.514471  
286.500000	0.599741  
287.000000	0.869296  
287.500000	1.077994  
288.000000	1.566529  
288.500000	2.100255  
289.000000	2.677091  
289.500000	2.825593  
290.000000	2.990186  
290.500000	2.870837  
291.000000	2.631915  
291.500000	2.307775  
292.000000	1.795749  
292.500000	1.655795  
293.000000	1.709284  
293.500000	2.090998  
294.000000	2.145607  
294.500000	2.461409  
295.000000	2.488044  
295.500000	2.325747  
296.000000	1.967217  
296.500000	1.364324  
297.000000	0.891360  
297.500000	0.954480  
298.000000	1.507302  
298.500000	1.957470  
299.000000	2.713928  
299.500000	3.358624  
300.000000	3.682213  
300.500000	3.672386  
301.000000	3.205427  
301.500000	2.180237  
302.000000	1.189513  
302.500000	0.370568  
303.000000	-0.214607 
303.500000	-0.572638 
304.000000	-0.673041 
304.500000	-0.787008 
305.000000	-0.363636 
305.500000	0.305989  
306.000000	0.810836  
306.500000	1.437655  
307.000000	2.129842  
307.500000	3.127928  
308.000000	4.182552  
308.500000	5.013800  
309.000000	5.238791  
309.500000	5.377336  
310.000000	5.243667  
310.500000	4.682655  
311.000000	3.853664  
311.500000	2.889232  
312.000000	2.272682  
312.500000	2.029462  
313.000000	2.046717  
313.500000	2.103638  
314.000000	2.445248  
314.500000	2.581943  
315.000000	2.690600  
315.500000	2.580799  
316.000000	2.360607  
316.500000	1.961352  
317.000000	1.545283  
317.500000	1.113860  
318.000000	0.769746  
318.500000	0.800596  
319.000000	0.644003  
319.500000	0.644656  
320.000000	0.624242  
320.500000	0.527931  
321.000000	0.337026  
321.500000	0.088031  
322.000000	-0.283610 
322.500000	-0.712538 
323.000000	-0.832477 
323.500000	-0.968753 
324.000000	-0.955712 
324.500000	-0.671429 
325.000000	-0.148733 
325.500000	0.352162  
326.000000	0.881579  
326.500000	1.282358  
327.000000	1.459260  
327.500000	1.440513  
328.000000	1.252753  
328.500000	0.924484  
329.000000	0.740016  
329.500000	0.694967  
330.000000	0.686422  
330.500000	0.769791  
331.000000	0.896841  
331.500000	0.980033  
332.000000	0.944741  
332.500000	0.812929  
333.000000	0.438342  
333.500000	0.044578  
334.000000	-0.198124 
334.500000	-0.320080 
335.000000	-0.341054 
335.500000	-0.180116 
336.000000	0.041282  
336.500000	0.250043  
337.000000	0.515475  
337.500000	0.625285  
338.000000	0.659268  
338.500000	0.702382  
339.000000	0.795857  
339.500000	0.880040  
340.000000	0.967455  
340.500000	0.952092  
341.000000	0.842433  
341.500000	0.827329  
342.000000	0.700729  
342.500000	0.460460  
343.000000	0.256866  
343.500000	0.090530  
344.000000	-0.013478 
344.500000	-0.053980 
345.000000	-0.115194 
345.500000	-0.163920 
346.000000	-0.032630 
346.500000	0.057540  
347.000000	0.077739  
347.500000	0.196036  
348.000000	0.327027  
348.500000	0.479557  
349.000000	0.630397  
349.500000	0.636520  
350.000000	0.640492  
350.500000	0.737471  
351.000000	0.791444  
351.500000	0.724637  
352.000000	0.707546  
352.500000	0.693126  
353.000000	0.671401  
353.500000	0.644991  
354.000000	0.490401  
354.500000	0.398691  
355.000000	0.237388  
355.500000	0.041285  
356.000000	-0.186547 
356.500000	-0.309083 
357.000000	-0.326589 
357.500000	-0.177332 
358.000000	-0.011098 
358.500000	0.155303  
359.000000	0.444887  
359.500000	0.566899  
360.000000	0.607605  
360.500000	0.566265  
361.000000	0.444395  
361.500000	0.304584  
362.000000	0.305730  
362.500000	0.252237  
363.000000	0.231214  
363.500000	0.391872  
364.000000	0.517556  
364.500000	0.636760  
365.000000	0.751252  
365.500000	0.835697  
366.000000	0.909929  
366.500000	1.082028  
367.000000	1.137343  
367.500000	1.131798  
368.000000	1.154044  
368.500000	1.102699  
369.000000	1.000291  
369.500000	0.832937  
370.000000	0.724043  
370.500000	0.748400  
371.000000	0.888632  
371.500000	1.032597  
372.000000	1.095516  
372.500000	1.207622  
373.000000	1.329669  
373.500000	1.343121  
374.000000	1.180474  
374.500000	1.019731  
375.000000	0.926116  
375.500000	0.854659  
376.000000	0.763786  
376.500000	0.605680  
377.000000	0.466137  
377.500000	0.388917  
378.000000	0.332282  
378.500000	0.217761  
379.000000	0.206392  
379.500000	0.299015  
380.000000	0.436213  
380.500000	0.580155  
381.000000	0.712525  
381.500000	0.848480  
382.000000	0.977467  
382.500000	1.057751  
383.000000	1.105888  
383.500000	1.169494  
384.000000	1.239176  
384.500000	1.310876  
385.000000	1.300247  
385.500000	1.223874  
386.000000	1.146250  
386.500000	1.078206  
387.000000	1.011368  
387.500000	0.988467  
388.000000	1.028176  
388.500000	1.102806  
389.000000	1.210605  
389.500000	1.324968  
390.000000	1.339418  
390.500000	1.303054  
391.000000	1.252210  
391.500000	1.160807  
392.000000	1.079176  
392.500000	1.016227  
393.000000	0.974391  
393.500000	0.976084  
394.000000	1.061198  
394.500000	1.136288  
395.000000	1.184485  
395.500000	1.193477  
396.000000	1.133997  
396.500000	1.040956  
397.000000	0.935935  
397.500000	0.811087  
398.000000	0.701211  
398.500000	0.661956  
399.000000	0.670450  
399.500000	0.686603  
400.000000	0.744098  
400.500000	0.761870  
401.000000	0.760327  
401.500000	0.743948  
402.000000	0.706819  
402.500000	0.653368  
403.000000	0.602273  
403.500000	0.567717  
404.000000	0.511024  
404.500000	0.494292  
405.000000	0.494274  
405.500000	0.496193  
406.000000	0.511212  
406.500000	0.549599  
407.000000	0.578482  
407.500000	0.631837  
408.000000	0.688976  
408.500000	0.722099  
409.000000	0.792196  
409.500000	0.878918  
410.000000	0.978288  
410.500000	1.063903  
411.000000	1.122159  
411.500000	1.152047  
412.000000	1.143013  
412.500000	1.048727  
413.000000	0.906755  
413.500000	0.800298  
414.000000	0.713632  
414.500000	0.698521  
415.000000	0.718297  
415.500000	0.739408  
416.000000	0.801822  
416.500000	0.883436  
417.000000	0.908733  
417.500000	0.859864  
418.000000	0.801914  
418.500000	0.714873  
419.000000	0.662476  
419.500000	0.607781  
420.000000	0.539179  
420.500000	0.507282  
421.000000	0.525764  
421.500000	0.568067  
422.000000	0.623019  
422.500000	0.672483  
423.000000	0.715182  
423.500000	0.776950  
424.000000	0.826481  
424.500000	0.828508  
425.000000	0.821186  
425.500000	0.803651  
426.000000	0.798428  
426.500000	0.805062  
427.000000	0.784688  
427.500000	0.747837  
428.000000	0.711645  
428.500000	0.690012  
429.000000	0.632690  
429.500000	0.581750  
430.000000	0.533221  
430.500000	0.523509  
431.000000	0.539696  
431.500000	0.544899  
432.000000	0.536793  
432.500000	0.525092  
433.000000	0.538881  
433.500000	0.542517  
434.000000	0.547735  
434.500000	0.560545  
435.000000	0.623454  
435.500000	0.715858  
436.000000	0.799471  
436.500000	0.858573  
437.000000	0.868706  
437.500000	0.856887  
438.000000	0.827174  
438.500000	0.782535  
439.000000	0.733447  
439.500000	0.677722  
440.000000	0.662824  
440.500000	0.671816  
441.000000	0.703742  
441.500000	0.722200  
442.000000	0.732409  
442.500000	0.743238  
443.000000	0.766773  
443.500000	0.790466  
444.000000	0.774012  
444.500000	0.743709  

