PE FL                   SPECTRUM    ASCII       PEDS        1.60        
  -1
PP9C35~1
23/10/10
14:51:52.00
23/10/10
14:51:52.00


444.500000
1









LS55
15.00
5.00
5.00
SCAN
1
20
100
100
0
500
0
2
0
1
7
ON
500 450 
1 0 0
#HDR
-1
-1
#GR
NM

0.00002384185791015625
0.0
250.000000
0.500000
390
8
3.326296
-5.341387
#DATA
250.000000	-1.358000 
250.500000	-2.247880 
251.000000	-3.241413 
251.500000	-4.020140 
252.000000	-4.569833 
252.500000	-4.905482 
253.000000	-5.071294 
253.500000	-5.140696 
254.000000	-5.216330 
254.500000	-5.341387 
255.000000	-5.214903 
255.500000	-5.265614 
256.000000	-5.195535 
256.500000	-4.966306 
257.000000	-4.268198 
257.500000	-3.276092 
258.000000	-1.992152 
258.500000	-0.586728 
259.000000	0.059178  
259.500000	0.828191  
260.000000	1.203215  
260.500000	1.062348  
261.000000	0.343407  
261.500000	-0.339693 
262.000000	-1.046344 
262.500000	-1.579288 
263.000000	-1.714062 
263.500000	-2.262019 
264.000000	-2.339997 
264.500000	-2.430314 
265.000000	-2.419968 
265.500000	-2.559200 
266.000000	-2.450145 
266.500000	-2.322121 
267.000000	-2.183090 
267.500000	-1.903452 
268.000000	-1.931258 
268.500000	-2.043686 
269.000000	-2.393863 
269.500000	-2.870034 
270.000000	-3.297315 
270.500000	-3.463879 
271.000000	-3.469682 
271.500000	-3.423492 
272.000000	-3.320365 
272.500000	-3.219019 
273.000000	-3.220795 
273.500000	-3.395555 
274.000000	-3.634602 
274.500000	-3.723433 
275.000000	-3.807506 
275.500000	-3.611305 
276.000000	-3.120088 
276.500000	-2.459110 
277.000000	-2.017806 
277.500000	-1.790660 
278.000000	-1.641913 
278.500000	-1.433557 
279.000000	-1.161675 
279.500000	-0.947511 
280.000000	-0.608268 
280.500000	0.103946  
281.000000	0.956755  
281.500000	1.277611  
282.000000	1.177648  
282.500000	0.798630  
283.000000	0.388286  
283.500000	-0.244577 
284.000000	-1.081215 
284.500000	-1.861073 
285.000000	-2.311999 
285.500000	-2.336111 
286.000000	-2.316327 
286.500000	-2.445272 
287.000000	-2.399381 
287.500000	-1.965033 
288.000000	-1.650261 
288.500000	-1.445033 
289.000000	-1.206615 
289.500000	-1.084174 
290.000000	-1.118940 
290.500000	-1.127694 
291.000000	-1.501249 
291.500000	-2.108453 
292.000000	-2.622666 
292.500000	-2.908998 
293.000000	-3.211662 
293.500000	-3.197881 
294.000000	-3.160805 
294.500000	-3.150146 
295.000000	-2.610613 
295.500000	-1.848128 
296.000000	-1.257333 
296.500000	-1.000008 
297.000000	-0.677981 
297.500000	-0.437454 
298.000000	-0.470759 
298.500000	-0.761505 
299.000000	-1.300054 
299.500000	-1.581334 
300.000000	-1.458524 
300.500000	-1.167299 
301.000000	-1.002534 
301.500000	-0.755891 
302.000000	-0.291492 
302.500000	-0.077085 
303.000000	-0.209221 
303.500000	-0.682852 
304.000000	-1.186153 
304.500000	-1.509444 
305.000000	-1.677584 
305.500000	-1.630798 
306.000000	-1.652704 
306.500000	-1.508951 
307.000000	-1.421478 
307.500000	-1.277069 
308.000000	-1.256199 
308.500000	-1.165883 
309.000000	-0.986221 
309.500000	-0.583645 
310.000000	0.208211  
310.500000	1.049649  
311.000000	1.619816  
311.500000	2.007386  
312.000000	2.203165  
312.500000	1.988849  
313.000000	1.543604  
313.500000	0.781291  
314.000000	0.158546  
314.500000	-0.172114 
315.000000	-0.032028 
315.500000	0.118945  
316.000000	0.366144  
316.500000	0.517835  
317.000000	0.491363  
317.500000	0.379853  
318.000000	-0.044548 
318.500000	-0.495267 
319.000000	-1.007636 
319.500000	-1.124309 
320.000000	-1.096329 
320.500000	-0.779074 
321.000000	-0.444276 
321.500000	-0.098727 
322.000000	0.244721  
322.500000	0.372513  
323.000000	0.388392  
323.500000	0.240563  
324.000000	0.095228  
324.500000	-0.026871 
325.000000	0.006580  
325.500000	0.094223  
326.000000	0.177573  
326.500000	0.348081  
327.000000	0.487829  
327.500000	0.573860  
328.000000	0.597993  
328.500000	0.523269  
329.000000	0.490943  
329.500000	0.513036  
330.000000	0.703810  
330.500000	1.060030  
331.000000	1.580915  
331.500000	2.164614  
332.000000	2.752833  
332.500000	3.216896  
333.000000	3.326296  
333.500000	3.110783  
334.000000	2.559011  
334.500000	1.930856  
335.000000	1.306189  
335.500000	0.698774  
336.000000	0.219393  
336.500000	-0.020670 
337.000000	0.006718  
337.500000	0.220341  
338.000000	0.598015  
338.500000	0.923581  
339.000000	1.319767  
339.500000	1.866765  
340.000000	2.347536  
340.500000	2.646578  
341.000000	2.792697  
341.500000	2.825061  
342.000000	2.687280  
342.500000	2.371537  
343.000000	1.860295  
343.500000	1.293291  
344.000000	0.888274  
344.500000	0.672584  
345.000000	0.615558  
345.500000	0.673681  
346.000000	0.948561  
346.500000	1.341216  
347.000000	1.733378  
347.500000	2.018514  
348.000000	2.102653  
348.500000	2.060392  
349.000000	1.955038  
349.500000	1.699736  
350.000000	1.354330  
350.500000	1.107486  
351.000000	1.045379  
351.500000	1.154670  
352.000000	1.430274  
352.500000	1.754368  
353.000000	2.056225  
353.500000	2.368833  
354.000000	2.528800  
354.500000	2.454656  
355.000000	2.299361  
355.500000	2.075760  
356.000000	1.915457  
356.500000	1.794444  
357.000000	1.708940  
357.500000	1.677667  
358.000000	1.718683  
358.500000	1.705934  
359.000000	1.491851  
359.500000	1.239757  
360.000000	0.902202  
360.500000	0.585001  
361.000000	0.354367  
361.500000	0.209831  
362.000000	0.152392  
362.500000	0.279471  
363.000000	0.583117  
363.500000	0.827991  
364.000000	1.060271  
364.500000	1.230792  
365.000000	1.373042  
365.500000	1.518751  
366.000000	1.632238  
366.500000	1.627422  
367.000000	1.647427  
367.500000	1.675308  
368.000000	1.632257  
368.500000	1.502469  
369.000000	1.280331  
369.500000	1.008329  
370.000000	0.858484  
370.500000	0.810837  
371.000000	0.699322  
371.500000	0.719677  
372.000000	0.848954  
372.500000	1.068643  
373.000000	1.255951  
373.500000	1.319776  
374.000000	1.282249  
374.500000	1.226865  
375.000000	1.170723  
375.500000	0.945570  
376.000000	0.727325  
376.500000	0.575849  
377.000000	0.541476  
377.500000	0.558034  
378.000000	0.606941  
378.500000	0.705936  
379.000000	0.907894  
379.500000	1.182768  
380.000000	1.367368  
380.500000	1.431022  
381.000000	1.450423  
381.500000	1.452794  
382.000000	1.374796  
382.500000	1.255442  
383.000000	1.141283  
383.500000	1.096944  
384.000000	1.090670  
384.500000	1.091828  
385.000000	1.054137  
385.500000	1.049699  
386.000000	1.034101  
386.500000	0.969092  
387.000000	0.825729  
387.500000	0.693865  
388.000000	0.607178  
388.500000	0.569128  
389.000000	0.551961  
389.500000	0.603961  
390.000000	0.717484  
390.500000	0.860787  
391.000000	1.012546  
391.500000	1.093396  
392.000000	1.165389  
392.500000	1.225116  
393.000000	1.289511  
393.500000	1.298623  
394.000000	1.338274  
394.500000	1.362759  
395.000000	1.426273  
395.500000	1.499378  
396.000000	1.549742  
396.500000	1.603039  
397.000000	1.644927  
397.500000	1.695717  
398.000000	1.707638  
398.500000	1.759337  
399.000000	1.756761  
399.500000	1.717121  
400.000000	1.627105  
400.500000	1.549344  
401.000000	1.428197  
401.500000	1.271376  
402.000000	1.122058  
402.500000	0.991243  
403.000000	0.934885  
403.500000	0.929035  
404.000000	0.931927  
404.500000	0.948333  
405.000000	1.045901  
405.500000	1.158007  
406.000000	1.251950  
406.500000	1.328308  
407.000000	1.349431  
407.500000	1.382808  
408.000000	1.446079  
408.500000	1.436349  
409.000000	1.371862  
409.500000	1.336013  
410.000000	1.288061  
410.500000	1.244656  
411.000000	1.222758  
411.500000	1.157927  
412.000000	1.115151  
412.500000	1.146626  
413.000000	1.208527  
413.500000	1.269845  
414.000000	1.308901  
414.500000	1.329485  
415.000000	1.369155  
415.500000	1.402263  
416.000000	1.379447  
416.500000	1.293388  
417.000000	1.230132  
417.500000	1.173135  
418.000000	1.111875  
418.500000	1.019364  
419.000000	0.906963  
419.500000	0.855112  
420.000000	0.827583  
420.500000	0.822740  
421.000000	0.781186  
421.500000	0.779552  
422.000000	0.802973  
422.500000	0.839933  
423.000000	0.849145  
423.500000	0.827136  
424.000000	0.862222  
424.500000	0.909722  
425.000000	0.965442  
425.500000	0.990260  
426.000000	1.019119  
426.500000	1.054523  
427.000000	1.065613  
427.500000	1.045122  
428.000000	0.985299  
428.500000	0.927464  
429.000000	0.882654  
429.500000	0.861055  
430.000000	0.859705  
430.500000	0.867724  
431.000000	0.889922  
431.500000	0.922351  
432.000000	0.970904  
432.500000	1.017245  
433.000000	1.056298  
433.500000	1.089275  
434.000000	1.109308  
434.500000	1.130819  
435.000000	1.169879  
435.500000	1.184222  
436.000000	1.166413  
436.500000	1.137806  
437.000000	1.100060  
437.500000	1.044546  
438.000000	1.004068  
438.500000	0.949283  
439.000000	0.881831  
439.500000	0.865565  
440.000000	0.864270  
440.500000	0.871429  
441.000000	0.883485  
441.500000	0.893511  
442.000000	0.895462  
442.500000	0.918290  
443.000000	0.929592  
443.500000	0.900564  
444.000000	0.881469  
444.500000	0.850254  

