PE FL                   SPECTRUM    ASCII       PEDS        1.60        
  -1
PP9C45~1
23/10/10
14:52:32.00
23/10/10
14:52:32.00


444.500000
1









LS55
20.00
5.00
5.00
SCAN
1
20
100
100
0
500
0
2
0
1
7
ON
500 450 
1 0 0
#HDR
-1
-1
#GR
NM

0.00002384185791015625
0.0
250.000000
0.500000
390
8
4.211519
-5.426281
#DATA
250.000000	4.172000  
250.500000	2.406993  
251.000000	0.869111  
251.500000	-0.063208 
252.000000	-1.051838 
252.500000	-1.521811 
253.000000	-2.106950 
253.500000	-2.283563 
254.000000	-2.769451 
254.500000	-3.407475 
255.000000	-4.129751 
255.500000	-4.799294 
256.000000	-5.241346 
256.500000	-5.426281 
257.000000	-5.130342 
257.500000	-4.544047 
258.000000	-3.588181 
258.500000	-2.720517 
259.000000	-1.751581 
259.500000	-0.909668 
260.000000	-0.537447 
260.500000	-0.843010 
261.000000	-1.100534 
261.500000	-1.426959 
262.000000	-1.386602 
262.500000	-0.861896 
263.000000	-0.327431 
263.500000	0.719806  
264.000000	1.979458  
264.500000	3.013218  
265.000000	3.228487  
265.500000	3.034728  
266.000000	2.022997  
266.500000	0.841308  
267.000000	-0.339825 
267.500000	-1.653361 
268.000000	-2.228234 
268.500000	-2.171461 
269.000000	-1.408048 
269.500000	-0.334338 
270.000000	1.091639  
270.500000	2.299413  
271.000000	3.427953  
271.500000	4.028165  
272.000000	4.211519  
272.500000	4.146181  
273.000000	3.620474  
273.500000	3.095531  
274.000000	2.700770  
274.500000	2.316976  
275.000000	1.935067  
275.500000	1.612547  
276.000000	1.038972  
276.500000	0.729611  
277.000000	0.421202  
277.500000	-0.188788 
278.000000	-0.432769 
278.500000	-0.194075 
279.000000	0.205816  
279.500000	0.820950  
280.000000	0.960247  
280.500000	0.954231  
281.000000	1.152872  
281.500000	1.135665  
282.000000	0.502517  
282.500000	-0.200610 
283.000000	-0.651300 
283.500000	-0.707210 
284.000000	-0.268434 
284.500000	-0.059031 
285.000000	0.225384  
285.500000	0.425686  
286.000000	0.631177  
286.500000	0.492345  
287.000000	0.197707  
287.500000	-0.135312 
288.000000	-0.117571 
288.500000	0.239642  
289.000000	0.544316  
289.500000	0.858412  
290.000000	0.885659  
290.500000	0.784425  
291.000000	0.413292  
291.500000	-0.167736 
292.000000	-0.784786 
292.500000	-1.291018 
293.000000	-1.520368 
293.500000	-1.468340 
294.000000	-1.158346 
294.500000	-1.046364 
295.000000	-0.694455 
295.500000	-0.413278 
296.000000	-0.314174 
296.500000	-0.125897 
297.000000	-0.192075 
297.500000	-0.342014 
298.000000	-0.450738 
298.500000	-0.483437 
299.000000	-0.825725 
299.500000	-0.827555 
300.000000	-0.718125 
300.500000	-0.661985 
301.000000	-0.394353 
301.500000	-0.369551 
302.000000	-0.795303 
302.500000	-1.131443 
303.000000	-1.078820 
303.500000	-1.185796 
304.000000	-1.077792 
304.500000	-0.663032 
305.000000	-0.281048 
305.500000	0.017966  
306.000000	0.132103  
306.500000	-0.193196 
307.000000	-0.670292 
307.500000	-1.196423 
308.000000	-1.713354 
308.500000	-1.997981 
309.000000	-1.809764 
309.500000	-1.356288 
310.000000	-0.789161 
310.500000	-0.291637 
311.000000	0.109586  
311.500000	0.450925  
312.000000	0.556476  
312.500000	0.474718  
313.000000	0.198499  
313.500000	0.006805  
314.000000	-0.235948 
314.500000	-0.456907 
315.000000	-0.755445 
315.500000	-0.934879 
316.000000	-0.761022 
316.500000	-0.455240 
317.000000	-0.097237 
317.500000	0.124551  
318.000000	0.414760  
318.500000	0.510840  
319.000000	0.535595  
319.500000	0.645476  
320.000000	0.535672  
320.500000	0.361510  
321.000000	0.253933  
321.500000	0.251103  
322.000000	0.270527  
322.500000	0.511839  
323.000000	0.725532  
323.500000	0.903080  
324.000000	1.211663  
324.500000	1.487550  
325.000000	1.528878  
325.500000	1.361758  
326.000000	1.088121  
326.500000	0.754172  
327.000000	0.514204  
327.500000	0.390636  
328.000000	0.255549  
328.500000	0.265799  
329.000000	0.404555  
329.500000	0.525651  
330.000000	0.450957  
330.500000	0.226399  
331.000000	-0.079923 
331.500000	-0.355614 
332.000000	-0.473734 
332.500000	-0.513897 
333.000000	-0.333985 
333.500000	-0.091859 
334.000000	0.312594  
334.500000	0.647402  
335.000000	0.884014  
335.500000	0.975181  
336.000000	0.935856  
336.500000	0.752401  
337.000000	0.451098  
337.500000	0.311760  
338.000000	0.134135  
338.500000	0.133192  
339.000000	0.182622  
339.500000	0.308038  
340.000000	0.480926  
340.500000	0.761900  
341.000000	0.963641  
341.500000	1.087170  
342.000000	1.130967  
342.500000	1.069177  
343.000000	0.977675  
343.500000	0.846039  
344.000000	0.654974  
344.500000	0.459956  
345.000000	0.294138  
345.500000	0.171631  
346.000000	0.193769  
346.500000	0.258267  
347.000000	0.428953  
347.500000	0.741574  
348.000000	1.126542  
348.500000	1.433373  
349.000000	1.640743  
349.500000	1.624717  
350.000000	1.477874  
350.500000	1.207466  
351.000000	0.819326  
351.500000	0.357367  
352.000000	-0.051776 
352.500000	-0.258925 
353.000000	-0.352818 
353.500000	-0.265090 
354.000000	-0.077223 
354.500000	0.268470  
355.000000	0.620813  
355.500000	1.039962  
356.000000	1.423726  
356.500000	1.702819  
357.000000	1.899289  
357.500000	1.972723  
358.000000	1.969048  
358.500000	1.816862  
359.000000	1.643974  
359.500000	1.326089  
360.000000	1.065015  
360.500000	0.908337  
361.000000	0.857794  
361.500000	0.842702  
362.000000	0.898423  
362.500000	0.977262  
363.000000	1.088499  
363.500000	1.348091  
364.000000	1.434182  
364.500000	1.476683  
365.000000	1.447710  
365.500000	1.488499  
366.000000	1.511800  
366.500000	1.508515  
367.000000	1.457286  
367.500000	1.374448  
368.000000	1.380791  
368.500000	1.320236  
369.000000	1.239121  
369.500000	1.056223  
370.000000	0.951233  
370.500000	0.885615  
371.000000	0.800911  
371.500000	0.702881  
372.000000	0.580999  
372.500000	0.557738  
373.000000	0.501785  
373.500000	0.475975  
374.000000	0.448508  
374.500000	0.510796  
375.000000	0.628294  
375.500000	0.683311  
376.000000	0.740991  
376.500000	0.771229  
377.000000	0.846343  
377.500000	0.850279  
378.000000	0.833830  
378.500000	0.797764  
379.000000	0.820779  
379.500000	0.794613  
380.000000	0.718052  
380.500000	0.613899  
381.000000	0.473856  
381.500000	0.417066  
382.000000	0.349145  
382.500000	0.304928  
383.000000	0.322068  
383.500000	0.495660  
384.000000	0.676912  
384.500000	0.805209  
385.000000	0.912956  
385.500000	0.964733  
386.000000	1.022827  
386.500000	1.037231  
387.000000	1.040673  
387.500000	1.027703  
388.000000	1.080597  
388.500000	1.171322  
389.000000	1.224024  
389.500000	1.300314  
390.000000	1.317242  
390.500000	1.335816  
391.000000	1.325747  
391.500000	1.326286  
392.000000	1.312440  
392.500000	1.270735  
393.000000	1.247071  
393.500000	1.186317  
394.000000	1.170944  
394.500000	1.068854  
395.000000	0.955751  
395.500000	0.809754  
396.000000	0.711253  
396.500000	0.684502  
397.000000	0.658246  
397.500000	0.616975  
398.000000	0.571061  
398.500000	0.572773  
399.000000	0.555060  
399.500000	0.539087  
400.000000	0.542062  
400.500000	0.596198  
401.000000	0.730558  
401.500000	0.894945  
402.000000	1.046071  
402.500000	1.129935  
403.000000	1.149334  
403.500000	1.099305  
404.000000	0.967015  
404.500000	0.777433  
405.000000	0.569352  
405.500000	0.411632  
406.000000	0.297493  
406.500000	0.282180  
407.000000	0.310079  
407.500000	0.391385  
408.000000	0.537268  
408.500000	0.706304  
409.000000	0.869107  
409.500000	1.022713  
410.000000	1.142554  
410.500000	1.198370  
411.000000	1.238468  
411.500000	1.212327  
412.000000	1.161807  
412.500000	1.114754  
413.000000	1.088904  
413.500000	1.015621  
414.000000	0.939108  
414.500000	0.882923  
415.000000	0.823530  
415.500000	0.788010  
416.000000	0.739009  
416.500000	0.709645  
417.000000	0.720922  
417.500000	0.798902  
418.000000	0.834213  
418.500000	0.853068  
419.000000	0.874821  
419.500000	0.886504  
420.000000	0.915440  
420.500000	0.916262  
421.000000	0.895835  
421.500000	0.884962  
422.000000	0.938615  
422.500000	0.955472  
423.000000	0.928252  
423.500000	0.893287  
424.000000	0.847318  
424.500000	0.846243  
425.000000	0.825347  
425.500000	0.797254  
426.000000	0.758279  
426.500000	0.764050  
427.000000	0.783464  
427.500000	0.806815  
428.000000	0.811330  
428.500000	0.811243  
429.000000	0.862092  
429.500000	0.915913  
430.000000	0.961992  
430.500000	0.986574  
431.000000	1.020646  
431.500000	1.058269  
432.000000	1.096561  
432.500000	1.104280  
433.000000	1.064743  
433.500000	1.023621  
434.000000	0.960376  
434.500000	0.890245  
435.000000	0.802550  
435.500000	0.714185  
436.000000	0.646986  
436.500000	0.613642  
437.000000	0.611456  
437.500000	0.622394  
438.000000	0.658344  
438.500000	0.699328  
439.000000	0.755241  
439.500000	0.802036  
440.000000	0.844002  
440.500000	0.869771  
441.000000	0.872737  
441.500000	0.866043  
442.000000	0.865935  
442.500000	0.866482  
443.000000	0.850676  
443.500000	0.846322  
444.000000	0.851944  
444.500000	0.888227  

