PE FL                   SPECTRUM    ASCII       PEDS        1.60        
  -1
PP9C65~1
23/10/10
14:53:53.00
23/10/10
14:53:53.00


444.500000
1









LS55
30.00
5.00
5.00
SCAN
1
20
100
100
0
500
0
2
0
1
7
ON
500 450 
1 0 0
#HDR
-1
-1
#GR
NM

0.00002384185791015625
0.0
250.000000
0.500000
390
8
5.201136
-3.536685
#DATA
250.000000	-3.485000 
250.500000	-3.536685 
251.000000	-3.307185 
251.500000	-3.047767 
252.000000	-2.433309 
252.500000	-1.628469 
253.000000	-0.855427 
253.500000	-0.224975 
254.000000	0.232101  
254.500000	0.199104  
255.000000	0.050909  
255.500000	0.177532  
256.000000	0.069313  
256.500000	-0.039068 
257.000000	-0.008704 
257.500000	-0.090732 
258.000000	0.032750  
258.500000	0.266605  
259.000000	0.274871  
259.500000	0.415666  
260.000000	0.726811  
260.500000	1.008607  
261.000000	1.141810  
261.500000	1.066674  
262.000000	0.802306  
262.500000	0.604511  
263.000000	0.375879  
263.500000	-0.184477 
264.000000	-0.252551 
264.500000	-0.188666 
265.000000	-0.149433 
265.500000	-0.151788 
266.000000	-0.189388 
266.500000	-0.076006 
267.000000	0.052719  
267.500000	0.108418  
268.000000	0.171619  
268.500000	0.768695  
269.000000	1.398569  
269.500000	1.666003  
270.000000	1.791963  
270.500000	1.357954  
271.000000	0.734066  
271.500000	0.093497  
272.000000	-0.597679 
272.500000	-1.363951 
273.000000	-1.523227 
273.500000	-1.113273 
274.000000	-0.846450 
274.500000	-0.203124 
275.000000	0.346193  
275.500000	0.637261  
276.000000	0.854403  
276.500000	0.920505  
277.000000	0.711720  
277.500000	0.522649  
278.000000	0.444022  
278.500000	-0.123891 
279.000000	-0.401593 
279.500000	-0.627540 
280.000000	-1.075346 
280.500000	-1.387281 
281.000000	-1.448006 
281.500000	-1.585238 
282.000000	-1.410804 
282.500000	-0.878763 
283.000000	-0.686405 
283.500000	-0.650736 
284.000000	-0.569331 
284.500000	-0.640809 
285.000000	-0.578458 
285.500000	-0.511721 
286.000000	-0.614687 
286.500000	-0.459033 
287.000000	-0.028394 
287.500000	0.520265  
288.000000	0.857005  
288.500000	1.464629  
289.000000	1.795135  
289.500000	2.167954  
290.000000	2.619429  
290.500000	2.704168  
291.000000	2.672415  
291.500000	2.180927  
292.000000	1.486023  
292.500000	0.642111  
293.000000	-0.138506 
293.500000	-1.023197 
294.000000	-1.730714 
294.500000	-1.712456 
295.000000	-1.253716 
295.500000	-0.425041 
296.000000	0.260977  
296.500000	0.799521  
297.000000	1.349926  
297.500000	1.624659  
298.000000	1.568385  
298.500000	1.319297  
299.000000	1.377947  
299.500000	1.435503  
300.000000	1.736984  
300.500000	2.030067  
301.000000	2.336879  
301.500000	2.855212  
302.000000	3.174124  
302.500000	3.105965  
303.000000	2.992727  
303.500000	2.918922  
304.000000	2.490431  
304.500000	1.981166  
305.000000	1.507476  
305.500000	1.145615  
306.000000	1.073850  
306.500000	1.274829  
307.000000	1.751125  
307.500000	2.510569  
308.000000	3.501799  
308.500000	4.321635  
309.000000	4.936681  
309.500000	5.201136  
310.000000	5.114394  
310.500000	4.781167  
311.000000	4.292683  
311.500000	4.047477  
312.000000	3.978388  
312.500000	4.047584  
313.000000	4.131299  
313.500000	4.266823  
314.000000	4.150534  
314.500000	3.713889  
315.000000	2.912042  
315.500000	1.780088  
316.000000	0.846706  
316.500000	0.282040  
317.000000	0.267609  
317.500000	0.526205  
318.000000	1.267764  
318.500000	2.303807  
319.000000	3.493398  
319.500000	4.230580  
320.000000	4.465826  
320.500000	4.217130  
321.000000	3.724764  
321.500000	3.156508  
322.000000	2.279226  
322.500000	1.502854  
323.000000	1.053939  
323.500000	1.044591  
324.000000	1.125255  
324.500000	1.437142  
325.000000	1.869945  
325.500000	2.387259  
326.000000	2.795783  
326.500000	2.881911  
327.000000	2.582574  
327.500000	2.274304  
328.000000	1.995496  
328.500000	1.510872  
329.000000	1.117803  
329.500000	0.923812  
330.000000	1.045869  
330.500000	1.227216  
331.000000	1.391741  
331.500000	1.336761  
332.000000	1.490831  
332.500000	1.757400  
333.000000	1.853795  
333.500000	1.884544  
334.000000	1.882676  
334.500000	1.855698  
335.000000	1.718902  
335.500000	1.479383  
336.000000	0.905183  
336.500000	0.380028  
337.000000	0.139274  
337.500000	-0.053495 
338.000000	-0.209753 
338.500000	-0.140241 
339.000000	0.040584  
339.500000	0.322613  
340.000000	0.542023  
340.500000	0.524077  
341.000000	0.360074  
341.500000	0.281447  
342.000000	0.228849  
342.500000	0.141643  
343.000000	0.039180  
343.500000	0.008084  
344.000000	0.119047  
344.500000	0.313340  
345.000000	0.419723  
345.500000	0.398735  
346.000000	0.345212  
346.500000	0.319000  
347.000000	0.265446  
347.500000	0.128751  
348.000000	0.024423  
348.500000	0.020452  
349.000000	0.142813  
349.500000	0.267435  
350.000000	0.399451  
350.500000	0.444216  
351.000000	0.482027  
351.500000	0.527895  
352.000000	0.489397  
352.500000	0.470125  
353.000000	0.468663  
353.500000	0.485936  
354.000000	0.528873  
354.500000	0.584831  
355.000000	0.607081  
355.500000	0.614035  
356.000000	0.548131  
356.500000	0.395773  
357.000000	0.241519  
357.500000	0.099210  
358.000000	-0.036485 
358.500000	-0.094656 
359.000000	-0.052653 
359.500000	-0.020885 
360.000000	0.091475  
360.500000	0.267125  
361.000000	0.373595  
361.500000	0.399754  
362.000000	0.427559  
362.500000	0.398885  
363.000000	0.409116  
363.500000	0.469674  
364.000000	0.459776  
364.500000	0.458033  
365.000000	0.555772  
365.500000	0.651291  
366.000000	0.657142  
366.500000	0.646688  
367.000000	0.615579  
367.500000	0.580994  
368.000000	0.630555  
368.500000	0.648042  
369.000000	0.596767  
369.500000	0.583651  
370.000000	0.612069  
370.500000	0.598788  
371.000000	0.509379  
371.500000	0.426713  
372.000000	0.345649  
372.500000	0.342805  
373.000000	0.408270  
373.500000	0.453107  
374.000000	0.498725  
374.500000	0.557074  
375.000000	0.665964  
375.500000	0.676964  
376.000000	0.645993  
376.500000	0.597616  
377.000000	0.609530  
377.500000	0.699065  
378.000000	0.840234  
378.500000	0.979261  
379.000000	1.083196  
379.500000	1.173426  
380.000000	1.115080  
380.500000	0.922754  
381.000000	0.632362  
381.500000	0.307358  
382.000000	0.030132  
382.500000	-0.130448 
383.000000	-0.178292 
383.500000	-0.133244 
384.000000	0.052262  
384.500000	0.270571  
385.000000	0.518920  
385.500000	0.739634  
386.000000	0.894565  
386.500000	0.979892  
387.000000	1.032183  
387.500000	1.038867  
388.000000	1.009969  
388.500000	0.969051  
389.000000	0.897870  
389.500000	0.803377  
390.000000	0.725327  
390.500000	0.668499  
391.000000	0.586616  
391.500000	0.537540  
392.000000	0.466910  
392.500000	0.457890  
393.000000	0.475525  
393.500000	0.543419  
394.000000	0.603194  
394.500000	0.658244  
395.000000	0.767321  
395.500000	0.843406  
396.000000	0.884023  
396.500000	0.801435  
397.000000	0.741642  
397.500000	0.644796  
398.000000	0.579580  
398.500000	0.511471  
399.000000	0.437622  
399.500000	0.451503  
400.000000	0.546296  
400.500000	0.678141  
401.000000	0.755239  
401.500000	0.862820  
402.000000	0.928709  
402.500000	0.932926  
403.000000	0.890261  
403.500000	0.741886  
404.000000	0.560418  
404.500000	0.422700  
405.000000	0.306643  
405.500000	0.205073  
406.000000	0.185766  
406.500000	0.260856  
407.000000	0.373829  
407.500000	0.525275  
408.000000	0.644007  
408.500000	0.717116  
409.000000	0.760596  
409.500000	0.744919  
410.000000	0.704922  
410.500000	0.620409  
411.000000	0.584625  
411.500000	0.570193  
412.000000	0.605894  
412.500000	0.653828  
413.000000	0.717090  
413.500000	0.752289  
414.000000	0.739522  
414.500000	0.721654  
415.000000	0.658709  
415.500000	0.618571  
416.000000	0.581400  
416.500000	0.583694  
417.000000	0.595562  
417.500000	0.646854  
418.000000	0.675131  
418.500000	0.659984  
419.000000	0.656347  
419.500000	0.617670  
420.000000	0.602613  
420.500000	0.602916  
421.000000	0.653950  
421.500000	0.731800  
422.000000	0.835072  
422.500000	0.919161  
423.000000	0.966715  
423.500000	0.992323  
424.000000	0.940378  
424.500000	0.853581  
425.000000	0.748521  
425.500000	0.648829  
426.000000	0.591642  
426.500000	0.554850  
427.000000	0.546720  
427.500000	0.555664  
428.000000	0.611315  
428.500000	0.657835  
429.000000	0.673163  
429.500000	0.688988  
430.000000	0.685344  
430.500000	0.686566  
431.000000	0.665941  
431.500000	0.635153  
432.000000	0.602700  
432.500000	0.596484  
433.000000	0.598412  
433.500000	0.578448  
434.000000	0.574866  
434.500000	0.583441  
435.000000	0.598514  
435.500000	0.602574  
436.000000	0.602087  
436.500000	0.587292  
437.000000	0.589359  
437.500000	0.582400  
438.000000	0.546551  
438.500000	0.504373  
439.000000	0.492978  
439.500000	0.496813  
440.000000	0.490099  
440.500000	0.490907  
441.000000	0.488732  
441.500000	0.515331  
442.000000	0.547125  
442.500000	0.568364  
443.000000	0.573207  
443.500000	0.588359  
444.000000	0.620865  
444.500000	0.629699  

