PE FL                   SPECTRUM    ASCII       PEDS        1.60        
  -1
PP9C75~1
23/10/10
14:54:33.00
23/10/10
14:54:33.00


444.500000
1









LS55
35.00
5.00
5.00
SCAN
1
20
100
100
0
500
0
2
0
1
7
ON
500 450 
1 0 0
#HDR
-1
-1
#GR
NM

0.00002384185791015625
0.0
250.000000
0.500000
390
8
4.733901
-4.317649
#DATA
250.000000	-0.693000 
250.500000	-1.943022 
251.000000	-2.715360 
251.500000	-2.848575 
252.000000	-2.536879 
252.500000	-2.005532 
253.000000	-1.245639 
253.500000	-0.550216 
254.000000	-0.479765 
254.500000	-1.052019 
255.000000	-1.828934 
255.500000	-2.762849 
256.000000	-3.531529 
256.500000	-4.107924 
257.000000	-4.317649 
257.500000	-3.904517 
258.000000	-3.103977 
258.500000	-2.196832 
259.000000	-1.610221 
259.500000	-0.872722 
260.000000	-0.428939 
260.500000	-0.151142 
261.000000	-0.223901 
261.500000	-0.528806 
262.000000	-0.623726 
262.500000	-0.909806 
263.000000	-1.015425 
263.500000	-1.539058 
264.000000	-1.828574 
264.500000	-2.037728 
265.000000	-1.944077 
265.500000	-1.842543 
266.000000	-1.867525 
266.500000	-1.608239 
267.000000	-1.338355 
267.500000	-0.841896 
268.000000	-1.177899 
268.500000	-1.695308 
269.000000	-2.257360 
269.500000	-2.731325 
270.000000	-3.293556 
270.500000	-3.528153 
271.000000	-3.014098 
271.500000	-1.820890 
272.000000	0.064064  
272.500000	1.688613  
273.000000	3.123075  
273.500000	4.192579  
274.000000	4.733901  
274.500000	4.172795  
275.000000	2.977734  
275.500000	1.533224  
276.000000	0.004720  
276.500000	-1.289858 
277.000000	-2.455062 
277.500000	-3.320024 
278.000000	-3.571294 
278.500000	-3.455408 
279.000000	-3.369726 
279.500000	-3.412855 
280.000000	-3.248156 
280.500000	-2.996147 
281.000000	-2.810249 
281.500000	-2.536716 
282.000000	-2.073893 
282.500000	-1.409175 
283.000000	-0.618406 
283.500000	0.300348  
284.000000	0.775804  
284.500000	1.036859  
285.000000	1.503265  
285.500000	1.642934  
286.000000	1.526374  
286.500000	1.311978  
287.000000	1.121477  
287.500000	0.996529  
288.000000	1.199751  
288.500000	1.114826  
289.000000	0.722983  
289.500000	0.869818  
290.000000	0.940655  
290.500000	0.942652  
291.000000	1.038308  
291.500000	1.112559  
292.000000	0.989313  
292.500000	0.901722  
293.000000	0.813108  
293.500000	0.413360  
294.000000	0.247668  
294.500000	0.019261  
295.000000	-0.159541 
295.500000	-0.305437 
296.000000	-0.415578 
296.500000	-0.876083 
297.000000	-1.507994 
297.500000	-1.853122 
298.000000	-2.085000 
298.500000	-1.928220 
299.000000	-1.699739 
299.500000	-1.249509 
300.000000	-0.591940 
300.500000	-0.050616 
301.000000	0.183746  
301.500000	-0.038385 
302.000000	-0.184866 
302.500000	-0.360291 
303.000000	-0.533246 
303.500000	-0.731331 
304.000000	-0.751381 
304.500000	-0.453020 
305.000000	-0.180811 
305.500000	-0.023827 
306.000000	-0.084680 
306.500000	-0.220196 
307.000000	-0.568116 
307.500000	-0.808496 
308.000000	-0.903654 
308.500000	-0.884452 
309.000000	-0.601357 
309.500000	0.005872  
310.000000	0.868855  
310.500000	1.629755  
311.000000	2.268153  
311.500000	2.777323  
312.000000	3.140819  
312.500000	3.433691  
313.000000	3.437924  
313.500000	3.134970  
314.000000	2.831708  
314.500000	2.610563  
315.000000	2.287329  
315.500000	1.983464  
316.000000	1.748439  
316.500000	1.664478  
317.000000	1.782111  
317.500000	2.071377  
318.000000	2.280184  
318.500000	2.282397  
319.000000	2.294817  
319.500000	1.910310  
320.000000	1.302363  
320.500000	0.699612  
321.000000	0.210872  
321.500000	-0.077674 
322.000000	0.006438  
322.500000	0.453281  
323.000000	0.825290  
323.500000	1.203119  
324.000000	1.222791  
324.500000	1.161301  
325.000000	1.062314  
325.500000	0.930114  
326.000000	0.793027  
326.500000	0.963252  
327.000000	1.435179  
327.500000	1.891295  
328.000000	2.561021  
328.500000	2.992927  
329.000000	3.240507  
329.500000	3.255043  
330.000000	3.004006  
330.500000	2.575905  
331.000000	2.353508  
331.500000	2.388368  
332.000000	2.556736  
332.500000	2.942637  
333.000000	3.376963  
333.500000	3.790422  
334.000000	4.063793  
334.500000	3.957303  
335.000000	3.530748  
335.500000	3.018578  
336.000000	2.554253  
336.500000	2.079500  
337.000000	1.575018  
337.500000	1.235705  
338.000000	1.095923  
338.500000	1.139731  
339.000000	1.121399  
339.500000	1.043655  
340.000000	1.037664  
340.500000	1.165583  
341.000000	1.418623  
341.500000	1.535657  
342.000000	1.599818  
342.500000	1.640667  
343.000000	1.697313  
343.500000	1.589630  
344.000000	1.358435  
344.500000	1.150113  
345.000000	1.009783  
345.500000	1.016935  
346.000000	0.950016  
346.500000	0.826183  
347.000000	0.616663  
347.500000	0.505384  
348.000000	0.378446  
348.500000	0.173617  
349.000000	-0.002915 
349.500000	-0.143935 
350.000000	-0.105203 
350.500000	0.063220  
351.000000	0.252634  
351.500000	0.301973  
352.000000	0.449608  
352.500000	0.696035  
353.000000	0.868050  
353.500000	0.957844  
354.000000	0.983920  
354.500000	1.000488  
355.000000	1.076607  
355.500000	1.123616  
356.000000	0.993772  
356.500000	0.826824  
357.000000	0.796075  
357.500000	0.752570  
358.000000	0.710315  
358.500000	0.647834  
359.000000	0.591977  
359.500000	0.600183  
360.000000	0.613543  
360.500000	0.517139  
361.000000	0.355926  
361.500000	0.243213  
362.000000	0.088423  
362.500000	0.011557  
363.000000	-0.000152 
363.500000	0.093166  
364.000000	0.285034  
364.500000	0.555673  
365.000000	0.807355  
365.500000	1.015470  
366.000000	1.126798  
366.500000	0.996661  
367.000000	0.806278  
367.500000	0.496190  
368.000000	0.188743  
368.500000	-0.104104 
369.000000	-0.261062 
369.500000	-0.270678 
370.000000	-0.120070 
370.500000	0.155544  
371.000000	0.355896  
371.500000	0.528397  
372.000000	0.646932  
372.500000	0.658806  
373.000000	0.511418  
373.500000	0.336388  
374.000000	0.182145  
374.500000	0.104931  
375.000000	0.159483  
375.500000	0.252684  
376.000000	0.316046  
376.500000	0.451328  
377.000000	0.603456  
377.500000	0.658607  
378.000000	0.659274  
378.500000	0.625110  
379.000000	0.567059  
379.500000	0.544948  
380.000000	0.577781  
380.500000	0.532834  
381.000000	0.537316  
381.500000	0.597175  
382.000000	0.647482  
382.500000	0.653838  
383.000000	0.638630  
383.500000	0.626891  
384.000000	0.606748  
384.500000	0.637102  
385.000000	0.641617  
385.500000	0.638741  
386.000000	0.633884  
386.500000	0.641111  
387.000000	0.579288  
387.500000	0.483309  
388.000000	0.381823  
388.500000	0.283218  
389.000000	0.235216  
389.500000	0.232616  
390.000000	0.316887  
390.500000	0.428236  
391.000000	0.571904  
391.500000	0.668085  
392.000000	0.684516  
392.500000	0.614402  
393.000000	0.469378  
393.500000	0.345263  
394.000000	0.241250  
394.500000	0.201685  
395.000000	0.204049  
395.500000	0.290649  
396.000000	0.438315  
396.500000	0.636318  
397.000000	0.825574  
397.500000	0.924192  
398.000000	1.039526  
398.500000	1.134407  
399.000000	1.145702  
399.500000	1.088730  
400.000000	0.972580  
400.500000	0.803008  
401.000000	0.646295  
401.500000	0.504613  
402.000000	0.322653  
402.500000	0.228577  
403.000000	0.260783  
403.500000	0.341926  
404.000000	0.477226  
404.500000	0.624320  
405.000000	0.713097  
405.500000	0.777126  
406.000000	0.780236  
406.500000	0.694036  
407.000000	0.568874  
407.500000	0.440150  
408.000000	0.301589  
408.500000	0.202555  
409.000000	0.146658  
409.500000	0.107673  
410.000000	0.111983  
410.500000	0.108703  
411.000000	0.142526  
411.500000	0.164586  
412.000000	0.192994  
412.500000	0.249477  
413.000000	0.311557  
413.500000	0.359798  
414.000000	0.397649  
414.500000	0.431228  
415.000000	0.444225  
415.500000	0.486887  
416.000000	0.507709  
416.500000	0.500191  
417.000000	0.509967  
417.500000	0.549974  
418.000000	0.544402  
418.500000	0.524776  
419.000000	0.479895  
419.500000	0.429706  
420.000000	0.396412  
420.500000	0.363034  
421.000000	0.309919  
421.500000	0.290851  
422.000000	0.337850  
422.500000	0.369997  
423.000000	0.408081  
423.500000	0.431057  
424.000000	0.451289  
424.500000	0.468846  
425.000000	0.480146  
425.500000	0.470851  
426.000000	0.444592  
426.500000	0.441579  
427.000000	0.420573  
427.500000	0.407375  
428.000000	0.406090  
428.500000	0.409992  
429.000000	0.419928  
429.500000	0.424904  
430.000000	0.438153  
430.500000	0.454369  
431.000000	0.472517  
431.500000	0.475908  
432.000000	0.487169  
432.500000	0.506208  
433.000000	0.516569  
433.500000	0.525924  
434.000000	0.522483  
434.500000	0.548044  
435.000000	0.577257  
435.500000	0.619648  
436.000000	0.658268  
436.500000	0.701212  
437.000000	0.738674  
437.500000	0.769573  
438.000000	0.783999  
438.500000	0.762044  
439.000000	0.735703  
439.500000	0.704456  
440.000000	0.681103  
440.500000	0.649452  
441.000000	0.628636  
441.500000	0.613226  
442.000000	0.610912  
442.500000	0.599542  
443.000000	0.579655  
443.500000	0.558984  
444.000000	0.541974  
444.500000	0.536175  

