PE FL                   SPECTRUM    ASCII       PEDS        1.60        
  -1
PMAD21~1
23/10/10
17:01:49.00
23/10/10
17:01:49.00


444.500000
1









LS55
15.00
5.00
5.00
SCAN
1
20
100
100
0
500
0
2
0
1
7
ON
500 450 
1 0 0
#HDR
-1
-1
#GR
NM

0.00002384185791015625
0.0
300.000000
0.500000
290
8
106.287121
-3.697342
#DATA
300.000000	8.322000   
300.500000	4.701992   
301.000000	1.686935   
301.500000	-0.698152  
302.000000	-2.061508  
302.500000	-2.518190  
303.000000	-2.430463  
303.500000	-2.142373  
304.000000	-1.782762  
304.500000	-1.958744  
305.000000	-2.338879  
305.500000	-2.811052  
306.000000	-3.205942  
306.500000	-3.186159  
307.000000	-2.745317  
307.500000	-2.052374  
308.000000	-1.243310  
308.500000	-0.296878  
309.000000	0.437623   
309.500000	1.042349   
310.000000	1.068415   
310.500000	0.719817   
311.000000	0.086605   
311.500000	-0.678086  
312.000000	-1.512422  
312.500000	-2.286211  
313.000000	-2.867383  
313.500000	-3.308102  
314.000000	-3.498160  
314.500000	-3.697342  
315.000000	-3.520411  
315.500000	-3.008207  
316.000000	-2.305791  
316.500000	-1.571860  
317.000000	-0.880337  
317.500000	-0.327521  
318.000000	0.047879   
318.500000	0.102615   
319.000000	-0.281271  
319.500000	-0.711342  
320.000000	-0.972391  
320.500000	-1.149580  
321.000000	-1.351410  
321.500000	-1.510643  
322.000000	-1.548145  
322.500000	-1.412465  
323.000000	-1.311240  
323.500000	-1.411697  
324.000000	-1.584108  
324.500000	-1.461266  
325.000000	-1.241295  
325.500000	-1.103329  
326.000000	-1.059877  
326.500000	-0.904816  
327.000000	-0.364121  
327.500000	0.472048   
328.000000	1.529717   
328.500000	2.679632   
329.000000	4.225554   
329.500000	6.103458   
330.000000	7.899747   
330.500000	9.385013   
331.000000	10.515989  
331.500000	11.398525  
332.000000	11.981341  
332.500000	12.334420  
333.000000	12.456720  
333.500000	12.557450  
334.000000	12.816842  
334.500000	13.364983  
335.000000	13.967570  
335.500000	14.726497  
336.000000	15.713556  
336.500000	16.955788  
337.000000	18.531193  
337.500000	20.543239  
338.000000	22.876178  
338.500000	25.363216  
339.000000	28.470224  
339.500000	32.148593  
340.000000	36.271575  
340.500000	40.830694  
341.000000	45.868500  
341.500000	51.465620  
342.000000	57.779111  
342.500000	64.836483  
343.000000	71.912408  
343.500000	79.242488  
344.000000	86.592246  
344.500000	93.272128  
345.000000	98.999111  
345.500000	103.238610 
346.000000	105.726584 
346.500000	106.287121 
347.000000	105.071365 
347.500000	101.809129 
348.000000	97.040845  
348.500000	91.514722  
349.000000	85.370008  
349.500000	79.222596  
350.000000	73.105621  
350.500000	67.287940  
351.000000	61.787522  
351.500000	56.602787  
352.000000	51.387565  
352.500000	46.425331  
353.000000	41.791035  
353.500000	37.431030  
354.000000	33.488445  
354.500000	29.825219  
355.000000	26.473187  
355.500000	23.481738  
356.000000	20.697629  
356.500000	17.892219  
357.000000	15.283741  
357.500000	12.870164  
358.000000	10.751517  
358.500000	9.135356   
359.000000	7.928171   
359.500000	7.075731   
360.000000	6.507827   
360.500000	6.041375   
361.000000	5.558356   
361.500000	5.120199   
362.000000	4.570872   
362.500000	3.943460   
363.000000	3.436759   
363.500000	3.075879   
364.000000	2.812626   
364.500000	2.661638   
365.000000	2.554843   
365.500000	2.505817   
366.000000	2.510476   
366.500000	2.384404   
367.000000	2.124105   
367.500000	1.921041   
368.000000	1.736941   
368.500000	1.592803   
369.000000	1.465279   
369.500000	1.411649   
370.000000	1.375434   
370.500000	1.404463   
371.000000	1.411947   
371.500000	1.375769   
372.000000	1.420977   
372.500000	1.441897   
373.000000	1.425301   
373.500000	1.374052   
374.000000	1.396313   
374.500000	1.410357   
375.000000	1.391267   
375.500000	1.391586   
376.000000	1.403001   
376.500000	1.535966   
377.000000	1.686308   
377.500000	1.823625   
378.000000	1.935636   
378.500000	2.094515   
379.000000	2.267485   
379.500000	2.411944   
380.000000	2.477667   
380.500000	2.471329   
381.000000	2.421094   
381.500000	2.342036   
382.000000	2.169218   
382.500000	1.941125   
383.000000	1.730834   
383.500000	1.618876   
384.000000	1.639461   
384.500000	1.671126   
385.000000	1.715710   
385.500000	1.762165   
386.000000	1.818402   
386.500000	1.835996   
387.000000	1.760741   
387.500000	1.631576   
388.000000	1.438458   
388.500000	1.294199   
389.000000	1.151350   
389.500000	1.004329   
390.000000	0.935804   
390.500000	0.982382   
391.000000	1.091933   
391.500000	1.190688   
392.000000	1.326432   
392.500000	1.387583   
393.000000	1.425771   
393.500000	1.445765   
394.000000	1.395725   
394.500000	1.313494   
395.000000	1.293466   
395.500000	1.321464   
396.000000	1.338599   
396.500000	1.413398   
397.000000	1.453663   
397.500000	1.461603   
398.000000	1.488082   
398.500000	1.501119   
399.000000	1.476647   
399.500000	1.536751   
400.000000	1.645859   
400.500000	1.737648   
401.000000	1.802987   
401.500000	1.825526   
402.000000	1.773213   
402.500000	1.714265   
403.000000	1.634605   
403.500000	1.502465   
404.000000	1.409994   
404.500000	1.341341   
405.000000	1.311559   
405.500000	1.292800   
406.000000	1.294733   
406.500000	1.265631   
407.000000	1.289151   
407.500000	1.306309   
408.000000	1.317392   
408.500000	1.410612   
409.000000	1.501175   
409.500000	1.614237   
410.000000	1.732485   
410.500000	1.853241   
411.000000	1.921415   
411.500000	1.965963   
412.000000	1.966587   
412.500000	1.858350   
413.000000	1.775791   
413.500000	1.643580   
414.000000	1.512628   
414.500000	1.400448   
415.000000	1.317144   
415.500000	1.289533   
416.000000	1.314608   
416.500000	1.389508   
417.000000	1.417776   
417.500000	1.474477   
418.000000	1.517359   
418.500000	1.558215   
419.000000	1.589202   
419.500000	1.587022   
420.000000	1.589089   
420.500000	1.591706   
421.000000	1.619911   
421.500000	1.613867   
422.000000	1.599107   
422.500000	1.549791   
423.000000	1.490878   
423.500000	1.434736   
424.000000	1.351879   
424.500000	1.293106   
425.000000	1.264682   
425.500000	1.283671   
426.000000	1.319538   
426.500000	1.363031   
427.000000	1.390720   
427.500000	1.407402   
428.000000	1.413999   
428.500000	1.373122   
429.000000	1.311061   
429.500000	1.254271   
430.000000	1.222101   
430.500000	1.205779   
431.000000	1.203929   
431.500000	1.198292   
432.000000	1.190252   
432.500000	1.198575   
433.000000	1.191430   
433.500000	1.152027   
434.000000	1.127388   
434.500000	1.111020   
435.000000	1.110537   
435.500000	1.117568   
436.000000	1.135649   
436.500000	1.142123   
437.000000	1.148174   
437.500000	1.167209   
438.000000	1.157091   
438.500000	1.152135   
439.000000	1.142379   
439.500000	1.118430   
440.000000	1.098213   
440.500000	1.094173   
441.000000	1.086634   
441.500000	1.068710   
442.000000	1.071686   
442.500000	1.064351   
443.000000	1.064399   
443.500000	1.071458   
444.000000	1.066845   
444.500000	1.069848   

