PE FL                   SPECTRUM    ASCII       PEDS        1.60        
  -1
PMAD41~1
23/10/10
17:02:58.00
23/10/10
17:02:58.00


444.500000
1









LS55
25.00
5.00
5.00
SCAN
1
20
100
100
0
500
0
2
0
1
7
ON
500 450 
1 0 0
#HDR
-1
-1
#GR
NM

0.00002384185791015625
0.0
300.000000
0.500000
290
8
91.144786
-3.586106
#DATA
300.000000	0.000000  
300.500000	-0.939197 
301.000000	-1.664754 
301.500000	-2.456397 
302.000000	-3.053240 
302.500000	-3.216446 
303.000000	-3.397724 
303.500000	-3.586106 
304.000000	-3.492849 
304.500000	-3.301866 
305.000000	-3.049081 
305.500000	-2.588661 
306.000000	-2.158143 
306.500000	-1.921144 
307.000000	-1.593106 
307.500000	-1.424872 
308.000000	-1.366556 
308.500000	-1.258746 
309.000000	-0.947491 
309.500000	-0.603636 
310.000000	-0.119075 
310.500000	0.513332  
311.000000	0.806739  
311.500000	0.786815  
312.000000	0.561917  
312.500000	0.144447  
313.000000	-0.526434 
313.500000	-0.982088 
314.000000	-1.411820 
314.500000	-1.768781 
315.000000	-1.588957 
315.500000	-1.128275 
316.000000	-0.557115 
316.500000	0.345774  
317.000000	1.360764  
317.500000	2.485559  
318.000000	3.866803  
318.500000	5.359556  
319.000000	6.676668  
319.500000	8.016591  
320.000000	9.332496  
320.500000	10.490205 
321.000000	11.584832 
321.500000	12.408501 
322.000000	13.066232 
322.500000	13.512563 
323.000000	13.955577 
323.500000	14.425432 
324.000000	14.683237 
324.500000	14.821160 
325.000000	15.117404 
325.500000	15.504226 
326.000000	16.018492 
326.500000	17.030102 
327.000000	17.861486 
327.500000	18.796045 
328.000000	20.270856 
328.500000	21.699917 
329.000000	22.903919 
329.500000	23.928635 
330.000000	24.480341 
330.500000	24.819056 
331.000000	25.316105 
331.500000	25.354574 
332.000000	25.348998 
332.500000	25.515464 
333.000000	25.832042 
333.500000	26.261653 
334.000000	26.727534 
334.500000	26.842576 
335.000000	26.890296 
335.500000	27.184232 
336.000000	27.404749 
336.500000	27.945524 
337.000000	28.380172 
337.500000	28.952292 
338.000000	30.054968 
338.500000	31.741410 
339.000000	33.945579 
339.500000	36.701204 
340.000000	40.434271 
340.500000	45.016159 
341.000000	50.471036 
341.500000	55.866224 
342.000000	60.921992 
342.500000	65.892276 
343.000000	70.817968 
343.500000	75.626135 
344.000000	79.754064 
344.500000	83.613020 
345.000000	87.089324 
345.500000	89.771799 
346.000000	91.144786 
346.500000	90.896392 
347.000000	89.062279 
347.500000	86.032480 
348.000000	82.296406 
348.500000	77.701490 
349.000000	72.894418 
349.500000	68.221258 
350.000000	63.322969 
350.500000	58.300043 
351.000000	53.083691 
351.500000	47.697678 
352.000000	42.369711 
352.500000	37.318908 
353.000000	32.615807 
353.500000	28.391517 
354.000000	24.802010 
354.500000	21.461972 
355.000000	18.362800 
355.500000	15.558205 
356.000000	13.090209 
356.500000	11.035660 
357.000000	9.343297  
357.500000	8.100380  
358.000000	7.228154  
358.500000	6.710987  
359.000000	6.316272  
359.500000	5.990187  
360.000000	5.563004  
360.500000	5.130892  
361.000000	4.686431  
361.500000	4.147039  
362.000000	3.656648  
362.500000	3.175068  
363.000000	2.752979  
363.500000	2.368702  
364.000000	2.002990  
364.500000	1.632140  
365.000000	1.351269  
365.500000	1.089127  
366.000000	0.779051  
366.500000	0.562518  
367.000000	0.414805  
367.500000	0.498132  
368.000000	0.731409  
368.500000	0.993636  
369.000000	1.295439  
369.500000	1.597364  
370.000000	1.811791  
370.500000	1.920184  
371.000000	1.899174  
371.500000	1.704751  
372.000000	1.535989  
372.500000	1.389827  
373.000000	1.202236  
373.500000	1.091766  
374.000000	1.053996  
374.500000	1.064690  
375.000000	1.196347  
375.500000	1.359334  
376.000000	1.481741  
376.500000	1.653951  
377.000000	1.739678  
377.500000	1.777802  
378.000000	1.835451  
378.500000	1.846455  
379.000000	1.749597  
379.500000	1.635865  
380.000000	1.536524  
380.500000	1.496219  
381.000000	1.563106  
381.500000	1.598071  
382.000000	1.673637  
382.500000	1.816130  
383.000000	1.978707  
383.500000	2.118552  
384.000000	2.195575  
384.500000	2.225378  
385.000000	2.166024  
385.500000	2.039807  
386.000000	1.792678  
386.500000	1.515390  
387.000000	1.343605  
387.500000	1.255925  
388.000000	1.207250  
388.500000	1.207041  
389.000000	1.297033  
389.500000	1.391004  
390.000000	1.455908  
390.500000	1.472409  
391.000000	1.429063  
391.500000	1.376377  
392.000000	1.290766  
392.500000	1.171356  
393.000000	1.052201  
393.500000	1.018505  
394.000000	0.945395  
394.500000	0.876373  
395.000000	0.855528  
395.500000	0.906530  
396.000000	0.982765  
396.500000	1.055141  
397.000000	1.157483  
397.500000	1.280436  
398.000000	1.434288  
398.500000	1.480954  
399.000000	1.441331  
399.500000	1.346051  
400.000000	1.300643  
400.500000	1.253113  
401.000000	1.171766  
401.500000	1.108159  
402.000000	1.099194  
402.500000	1.151052  
403.000000	1.191118  
403.500000	1.220639  
404.000000	1.238260  
404.500000	1.281705  
405.000000	1.265449  
405.500000	1.226485  
406.000000	1.201473  
406.500000	1.250672  
407.000000	1.348423  
407.500000	1.443722  
408.000000	1.572927  
408.500000	1.702319  
409.000000	1.847645  
409.500000	1.906848  
410.000000	1.897792  
410.500000	1.831608  
411.000000	1.751996  
411.500000	1.683990  
412.000000	1.578103  
412.500000	1.517889  
413.000000	1.501610  
413.500000	1.550449  
414.000000	1.609808  
414.500000	1.647605  
415.000000	1.654743  
415.500000	1.635048  
416.000000	1.603248  
416.500000	1.508083  
417.000000	1.420490  
417.500000	1.322496  
418.000000	1.226139  
418.500000	1.159919  
419.000000	1.134635  
419.500000	1.140919  
420.000000	1.156109  
420.500000	1.178872  
421.000000	1.200015  
421.500000	1.220360  
422.000000	1.240536  
422.500000	1.242908  
423.000000	1.245205  
423.500000	1.250722  
424.000000	1.250396  
424.500000	1.212436  
425.000000	1.165769  
425.500000	1.104455  
426.000000	1.032143  
426.500000	0.979418  
427.000000	0.929362  
427.500000	0.916389  
428.000000	0.913060  
428.500000	0.919945  
429.000000	0.912341  
429.500000	0.924108  
430.000000	0.918300  
430.500000	0.903116  
431.000000	0.892280  
431.500000	0.880031  
432.000000	0.905133  
432.500000	0.940912  
433.000000	0.971866  
433.500000	0.986823  
434.000000	1.011713  
434.500000	1.005315  
435.000000	0.981920  
435.500000	0.945214  
436.000000	0.902353  
436.500000	0.877557  
437.000000	0.856911  
437.500000	0.842372  
438.000000	0.846313  
438.500000	0.861742  
439.000000	0.879129  
439.500000	0.905436  
440.000000	0.916835  
440.500000	0.927677  
441.000000	0.938852  
441.500000	0.936581  
442.000000	0.923962  
442.500000	0.911802  
443.000000	0.894234  
443.500000	0.886549  
444.000000	0.889737  
444.500000	0.888288  

