PE FL                   SPECTRUM    ASCII       PEDS        1.60        
  -1
PMAD11~1
23/10/10
17:01:15.00
23/10/10
17:01:15.00


444.500000
1









LS55
10.00
5.00
5.00
SCAN
1
20
100
100
0
500
0
2
0
1
7
ON
500 450 
1 0 0
#HDR
-1
-1
#GR
NM

0.00002384185791015625
0.0
300.000000
0.500000
290
8
97.816569
-4.096000
#DATA
300.000000	-4.096000 
300.500000	-3.219520 
301.000000	-2.645071 
301.500000	-2.371907 
302.000000	-2.435405 
302.500000	-2.375345 
303.000000	-2.497231 
303.500000	-2.397627 
304.000000	-2.108269 
304.500000	-1.618569 
305.000000	-1.252324 
305.500000	-1.088251 
306.000000	-1.162584 
306.500000	-1.522964 
307.000000	-2.020764 
307.500000	-2.524077 
308.000000	-2.790438 
308.500000	-2.767556 
309.000000	-2.283949 
309.500000	-1.691536 
310.000000	-1.107881 
310.500000	-0.537754 
311.000000	-0.128351 
311.500000	-0.023298 
312.000000	-0.183898 
312.500000	-0.354232 
313.000000	-0.546250 
313.500000	-0.598216 
314.000000	-0.805634 
314.500000	-1.040052 
315.000000	-1.268079 
315.500000	-1.486320 
316.000000	-1.855750 
316.500000	-2.445123 
317.000000	-2.857115 
317.500000	-3.159458 
318.000000	-3.226078 
318.500000	-3.282995 
319.000000	-3.195552 
319.500000	-3.052753 
320.000000	-2.717107 
320.500000	-2.330440 
321.000000	-1.993140 
321.500000	-1.498251 
322.000000	-0.889235 
322.500000	-0.257624 
323.000000	0.114979  
323.500000	0.405104  
324.000000	0.405781  
324.500000	0.387744  
325.000000	0.187858  
325.500000	-0.168339 
326.000000	-0.531590 
326.500000	-0.705266 
327.000000	-0.789159 
327.500000	-0.919084 
328.000000	-0.940349 
328.500000	-0.923092 
329.000000	-0.788337 
329.500000	-0.661331 
330.000000	-0.485147 
330.500000	-0.286184 
331.000000	0.131415  
331.500000	0.592085  
332.000000	1.101084  
332.500000	1.603962  
333.000000	2.176688  
333.500000	2.915721  
334.000000	3.757153  
334.500000	4.773541  
335.000000	5.799301  
335.500000	6.766056  
336.000000	7.605394  
336.500000	8.683547  
337.000000	9.827549  
337.500000	11.246093 
338.000000	13.133752 
338.500000	15.375467 
339.000000	18.439519 
339.500000	22.093254 
340.000000	26.309774 
340.500000	30.964114 
341.000000	36.300784 
341.500000	41.966255 
342.000000	47.985374 
342.500000	54.315435 
343.000000	60.984873 
343.500000	67.837191 
344.000000	74.702534 
344.500000	81.231411 
345.000000	87.272151 
345.500000	92.349562 
346.000000	95.915165 
346.500000	97.816569 
347.000000	97.814075 
347.500000	96.300085 
348.000000	93.283134 
348.500000	88.971958 
349.000000	83.642429 
349.500000	78.243799 
350.000000	72.549930 
350.500000	66.886543 
351.000000	61.370226 
351.500000	55.723149 
352.000000	50.602421 
352.500000	45.769470 
353.000000	41.345832 
353.500000	37.217593 
354.000000	33.884519 
354.500000	30.761438 
355.000000	27.911919 
355.500000	25.249518 
356.000000	22.397036 
356.500000	19.569413 
357.000000	16.802543 
357.500000	14.211599 
358.000000	11.876404 
358.500000	10.223511 
359.000000	8.954397  
359.500000	7.971984  
360.000000	7.385560  
360.500000	6.908847  
361.000000	6.583233  
361.500000	6.194397  
362.000000	5.761478  
362.500000	5.307221  
363.000000	4.893034  
363.500000	4.574555  
364.000000	4.179732  
364.500000	3.838457  
365.000000	3.555957  
365.500000	3.311363  
366.000000	3.092472  
366.500000	2.937432  
367.000000	2.811763  
367.500000	2.652213  
368.000000	2.526734  
368.500000	2.345499  
369.000000	2.197377  
369.500000	1.998372  
370.000000	1.874413  
370.500000	1.803026  
371.000000	1.859299  
371.500000	2.080963  
372.000000	2.258070  
372.500000	2.418316  
373.000000	2.597380  
373.500000	2.758381  
374.000000	2.702436  
374.500000	2.595441  
375.000000	2.484687  
375.500000	2.375012  
376.000000	2.267848  
376.500000	2.088476  
377.000000	1.925690  
377.500000	1.852219  
378.000000	1.924753  
378.500000	1.989989  
379.000000	2.044602  
379.500000	2.180804  
380.000000	2.347376  
380.500000	2.505233  
381.000000	2.617179  
381.500000	2.647530  
382.000000	2.578558  
382.500000	2.504365  
383.000000	2.488665  
383.500000	2.447636  
384.000000	2.485415  
384.500000	2.584377  
385.000000	2.691748  
385.500000	2.820174  
386.000000	2.934287  
386.500000	2.911019  
387.000000	2.804834  
387.500000	2.719201  
388.000000	2.620407  
388.500000	2.520314  
389.000000	2.424047  
389.500000	2.316227  
390.000000	2.233889  
390.500000	2.216930  
391.000000	2.190584  
391.500000	2.161091  
392.000000	2.146521  
392.500000	2.160394  
393.000000	2.168919  
393.500000	2.175222  
394.000000	2.182952  
394.500000	2.156434  
395.000000	2.091672  
395.500000	1.990862  
396.000000	1.890809  
396.500000	1.770149  
397.000000	1.681674  
397.500000	1.618060  
398.000000	1.615897  
398.500000	1.682529  
399.000000	1.799542  
399.500000	1.933318  
400.000000	2.034858  
400.500000	2.123500  
401.000000	2.202574  
401.500000	2.245274  
402.000000	2.230045  
402.500000	2.187627  
403.000000	2.136530  
403.500000	2.092964  
404.000000	2.081238  
404.500000	2.034368  
405.000000	1.998198  
405.500000	2.001848  
406.000000	2.020457  
406.500000	2.049112  
407.000000	2.119764  
407.500000	2.193813  
408.000000	2.282708  
408.500000	2.344946  
409.000000	2.348385  
409.500000	2.298834  
410.000000	2.234410  
410.500000	2.162378  
411.000000	2.099338  
411.500000	2.073964  
412.000000	2.073073  
412.500000	2.155258  
413.000000	2.236433  
413.500000	2.303593  
414.000000	2.342489  
414.500000	2.359171  
415.000000	2.366356  
415.500000	2.349235  
416.000000	2.320559  
416.500000	2.262469  
417.000000	2.240644  
417.500000	2.231877  
418.000000	2.233633  
418.500000	2.227683  
419.000000	2.209425  
419.500000	2.216304  
420.000000	2.207691  
420.500000	2.182898  
421.000000	2.136596  
421.500000	2.078590  
422.000000	2.000647  
422.500000	1.898773  
423.000000	1.790561  
423.500000	1.696093  
424.000000	1.665580  
424.500000	1.651346  
425.000000	1.654940  
425.500000	1.694580  
426.000000	1.757744  
426.500000	1.828293  
427.000000	1.882853  
427.500000	1.896407  
428.000000	1.876128  
428.500000	1.864228  
429.000000	1.833012  
429.500000	1.777064  
430.000000	1.732420  
430.500000	1.699477  
431.000000	1.693490  
431.500000	1.703886  
432.000000	1.715718  
432.500000	1.718948  
433.000000	1.721902  
433.500000	1.718117  
434.000000	1.702769  
434.500000	1.675791  
435.000000	1.625580  
435.500000	1.581830  
436.000000	1.542316  
436.500000	1.517849  
437.000000	1.493130  
437.500000	1.479149  
438.000000	1.481467  
438.500000	1.496251  
439.000000	1.498170  
439.500000	1.495820  
440.000000	1.487985  
440.500000	1.474732  
441.000000	1.459498  
441.500000	1.437118  
442.000000	1.407942  
442.500000	1.385945  
443.000000	1.383713  
443.500000	1.372197  
444.000000	1.364330  
444.500000	1.358064  

