PE FL                   SPECTRUM    ASCII       PEDS        1.60        
  -1
PMAD31~1
23/10/10
17:02:24.00
23/10/10
17:02:24.00


444.500000
1









LS55
20.00
5.00
5.00
SCAN
1
20
100
100
0
500
0
2
0
1
7
ON
500 450 
1 0 0
#HDR
-1
-1
#GR
NM

0.00002384185791015625
0.0
300.000000
0.500000
290
8
98.450574
-3.298488
#DATA
300.000000	4.296999  
300.500000	1.859137  
301.000000	-0.395035 
301.500000	-1.975741 
302.000000	-2.965553 
302.500000	-3.298488 
303.000000	-3.039334 
303.500000	-2.397629 
304.000000	-1.806082 
304.500000	-1.212198 
305.000000	-0.575806 
305.500000	-0.106639 
306.000000	0.285087  
306.500000	0.453052  
307.000000	0.708707  
307.500000	0.985295  
308.000000	1.149799  
308.500000	0.935425  
309.000000	0.386037  
309.500000	-0.131614 
310.000000	-0.670598 
310.500000	-1.263547 
311.000000	-1.951244 
311.500000	-2.198651 
312.000000	-1.844388 
312.500000	-1.240980 
313.000000	-0.620894 
313.500000	-0.220060 
314.000000	0.121282  
314.500000	0.357460  
315.000000	0.227965  
315.500000	-0.314055 
316.000000	-0.949455 
316.500000	-1.329432 
317.000000	-1.599419 
317.500000	-1.712951 
318.000000	-1.608842 
318.500000	-1.247925 
319.000000	-0.623519 
319.500000	-0.088618 
320.000000	0.190566  
320.500000	0.263855  
321.000000	0.539491  
321.500000	0.853687  
322.000000	1.394643  
322.500000	2.123413  
323.000000	3.173066  
323.500000	4.508578  
324.000000	6.073612  
324.500000	7.640056  
325.000000	8.926356  
325.500000	10.146747 
326.000000	10.974626 
326.500000	11.606023 
327.000000	12.043054 
327.500000	12.383427 
328.000000	12.678281 
328.500000	12.960176 
329.000000	13.340332 
329.500000	13.739113 
330.000000	14.380530 
330.500000	15.090789 
331.000000	15.938711 
331.500000	17.093744 
332.000000	18.509306 
332.500000	19.907483 
333.000000	21.173973 
333.500000	22.310026 
334.000000	23.359544 
334.500000	24.412287 
335.000000	25.218068 
335.500000	25.751614 
336.000000	26.295283 
336.500000	26.948104 
337.000000	27.625577 
337.500000	28.560486 
338.000000	29.772882 
338.500000	31.487254 
339.000000	33.713537 
339.500000	36.404314 
340.000000	39.886136 
340.500000	44.272279 
341.000000	49.259427 
341.500000	54.742476 
342.000000	60.894834 
342.500000	67.160232 
343.000000	73.490303 
343.500000	79.617393 
344.000000	84.922639 
344.500000	89.739338 
345.000000	93.858050 
345.500000	96.533488 
346.000000	97.993895 
346.500000	98.450574 
347.000000	97.516508 
347.500000	95.324549 
348.000000	92.101638 
348.500000	87.553536 
349.000000	82.498386 
349.500000	77.371910 
350.000000	71.684867 
350.500000	65.876413 
351.000000	60.310351 
351.500000	54.891444 
352.000000	49.501544 
352.500000	44.388704 
353.000000	39.169076 
353.500000	34.163964 
354.000000	29.725631 
354.500000	25.581123 
355.000000	21.822379 
355.500000	18.467409 
356.000000	15.645660 
356.500000	13.330011 
357.000000	11.579942 
357.500000	10.059816 
358.000000	8.709682  
358.500000	7.770180  
359.000000	7.118646  
359.500000	6.622414  
360.000000	6.218803  
360.500000	5.800427  
361.000000	5.374085  
361.500000	5.058783  
362.000000	4.626861  
362.500000	4.149778  
363.000000	3.699220  
363.500000	3.292228  
364.000000	2.911073  
364.500000	2.722554  
365.000000	2.617248  
365.500000	2.556537  
366.000000	2.684826  
366.500000	2.745087  
367.000000	2.709586  
367.500000	2.608017  
368.000000	2.394781  
368.500000	2.130812  
369.000000	1.949608  
369.500000	1.784958  
370.000000	1.633895  
370.500000	1.656972  
371.000000	1.756391  
371.500000	1.896714  
372.000000	2.063744  
372.500000	2.159459  
373.000000	2.242451  
373.500000	2.392538  
374.000000	2.557934  
374.500000	2.565208  
375.000000	2.578652  
375.500000	2.588721  
376.000000	2.500936  
376.500000	2.350730  
377.000000	2.088469  
377.500000	1.802306  
378.000000	1.563745  
378.500000	1.493691  
379.000000	1.377290  
379.500000	1.348373  
380.000000	1.429051  
380.500000	1.592675  
381.000000	1.740274  
381.500000	1.876308  
382.000000	1.964819  
382.500000	1.937657  
383.000000	1.939740  
383.500000	1.800727  
384.000000	1.650743  
384.500000	1.552660  
385.000000	1.524446  
385.500000	1.509553  
386.000000	1.550994  
386.500000	1.663363  
387.000000	1.745079  
387.500000	1.801039  
388.000000	1.754593  
388.500000	1.652819  
389.000000	1.574235  
389.500000	1.546915  
390.000000	1.522366  
390.500000	1.505587  
391.000000	1.506062  
391.500000	1.546856  
392.000000	1.597594  
392.500000	1.539877  
393.000000	1.394052  
393.500000	1.247942  
394.000000	1.117549  
394.500000	0.999637  
395.000000	0.906206  
395.500000	0.810649  
396.000000	0.819705  
396.500000	0.955314  
397.000000	1.094105  
397.500000	1.215834  
398.000000	1.305627  
398.500000	1.391455  
399.000000	1.454538  
399.500000	1.507513  
400.000000	1.497395  
400.500000	1.479641  
401.000000	1.522558  
401.500000	1.558184  
402.000000	1.605868  
402.500000	1.609086  
403.000000	1.607141  
403.500000	1.581205  
404.000000	1.570879  
404.500000	1.537800  
405.000000	1.459777  
405.500000	1.397140  
406.000000	1.348382  
406.500000	1.348534  
407.000000	1.326975  
407.500000	1.297251  
408.000000	1.253743  
408.500000	1.278485  
409.000000	1.350763  
409.500000	1.397667  
410.000000	1.467213  
410.500000	1.522158  
411.000000	1.570047  
411.500000	1.571954  
412.000000	1.466943  
412.500000	1.273418  
413.000000	1.095802  
413.500000	0.937417  
414.000000	0.785437  
414.500000	0.708201  
415.000000	0.730653  
415.500000	0.818933  
416.000000	0.970529  
416.500000	1.114102  
417.000000	1.231963  
417.500000	1.354702  
418.000000	1.428587  
418.500000	1.431111  
419.000000	1.398606  
419.500000	1.389497  
420.000000	1.387323  
420.500000	1.402849  
421.000000	1.415648  
421.500000	1.406279  
422.000000	1.421641  
422.500000	1.434238  
423.000000	1.429540  
423.500000	1.377052  
424.000000	1.308498  
424.500000	1.225304  
425.000000	1.128775  
425.500000	1.062285  
426.000000	1.008928  
426.500000	0.987276  
427.000000	0.989929  
427.500000	1.015006  
428.000000	1.031835  
428.500000	1.044217  
429.000000	1.039126  
429.500000	1.037180  
430.000000	1.069582  
430.500000	1.100607  
431.000000	1.128171  
431.500000	1.159104  
432.000000	1.206780  
432.500000	1.224353  
433.000000	1.235046  
433.500000	1.212781  
434.000000	1.167270  
434.500000	1.148756  
435.000000	1.134019  
435.500000	1.118104  
436.000000	1.082561  
436.500000	1.065955  
437.000000	1.025765  
437.500000	1.017225  
438.000000	0.999259  
438.500000	0.973571  
439.000000	0.975024  
439.500000	0.994131  
440.000000	1.034029  
440.500000	1.066135  
441.000000	1.095642  
441.500000	1.077455  
442.000000	1.064338  
442.500000	1.045094  
443.000000	0.991954  
443.500000	0.929904  
444.000000	0.863330  
444.500000	0.837081  

