PE FL                   SPECTRUM    ASCII       PEDS        1.60        
  -1
PMAD81~1
23/10/10
17:05:15.00
23/10/10
17:05:15.00


444.500000
1









LS55
45.00
5.00
5.00
SCAN
1
20
100
100
0
500
0
2
0
1
7
ON
500 450 
1 0 0
#HDR
-1
-1
#GR
NM

0.00002384185791015625
0.0
300.000000
0.500000
290
8
49.694055
0.796731
#DATA
300.000000	3.375000  
300.500000	5.976689  
301.000000	7.926839  
301.500000	9.703382  
302.000000	11.034701 
302.500000	11.696381 
303.000000	12.483211 
303.500000	13.403441 
304.000000	14.524340 
304.500000	16.041852 
305.000000	17.881615 
305.500000	19.409306 
306.000000	21.022732 
306.500000	22.383665 
307.000000	23.082407 
307.500000	23.636045 
308.000000	23.995798 
308.500000	24.280586 
309.000000	24.422536 
309.500000	24.665574 
310.000000	24.745588 
310.500000	24.868877 
311.000000	24.880766 
311.500000	24.516292 
312.000000	24.168152 
312.500000	23.793184 
313.000000	23.503330 
313.500000	23.450490 
314.000000	23.616952 
314.500000	23.885400 
315.000000	24.346519 
315.500000	24.853539 
316.000000	25.294281 
316.500000	25.687231 
317.000000	25.677665 
317.500000	25.318523 
318.000000	25.052500 
318.500000	24.645947 
319.000000	24.172995 
319.500000	23.802253 
320.000000	23.503870 
320.500000	23.376342 
321.000000	23.559620 
321.500000	23.664059 
322.000000	23.668433 
322.500000	23.953814 
323.000000	24.072944 
323.500000	24.235973 
324.000000	24.405086 
324.500000	24.466430 
325.000000	24.700886 
325.500000	25.071023 
326.000000	25.335259 
326.500000	25.485308 
327.000000	25.594699 
327.500000	25.246873 
328.000000	24.672407 
328.500000	23.841095 
329.000000	22.788678 
329.500000	21.996069 
330.000000	21.431606 
330.500000	20.963281 
331.000000	20.717871 
331.500000	20.701615 
332.000000	20.815874 
332.500000	20.728015 
333.000000	20.294413 
333.500000	19.567254 
334.000000	18.972336 
334.500000	18.600058 
335.000000	18.229040 
335.500000	18.059019 
336.000000	17.973770 
336.500000	18.312492 
337.000000	18.810211 
337.500000	19.204733 
338.000000	19.667571 
338.500000	20.154884 
339.000000	21.014972 
339.500000	22.073668 
340.000000	23.646734 
340.500000	25.466283 
341.000000	27.669265 
341.500000	30.268488 
342.000000	33.161153 
342.500000	36.259591 
343.000000	39.156700 
343.500000	41.911604 
344.000000	44.259877 
344.500000	46.347659 
345.000000	48.173952 
345.500000	49.296634 
346.000000	49.694055 
346.500000	49.578642 
347.000000	48.891115 
347.500000	47.309659 
348.000000	45.066416 
348.500000	41.987963 
349.000000	38.326610 
349.500000	34.838736 
350.000000	31.576520 
350.500000	28.405942 
351.000000	25.596287 
351.500000	23.296071 
352.000000	21.224153 
352.500000	19.458520 
353.000000	17.716952 
353.500000	15.733948 
354.000000	13.848536 
354.500000	12.301611 
355.000000	10.950718 
355.500000	9.767956  
356.000000	8.934286  
356.500000	8.332851  
357.000000	8.078499  
357.500000	7.865971  
358.000000	7.530778  
358.500000	6.961337  
359.000000	6.431869  
359.500000	5.848604  
360.000000	5.256645  
360.500000	4.604915  
361.000000	3.963830  
361.500000	3.511047  
362.000000	3.226915  
362.500000	3.044798  
363.000000	2.892938  
363.500000	2.858551  
364.000000	2.806813  
364.500000	2.899557  
365.000000	2.999329  
365.500000	2.982361  
366.000000	2.984965  
366.500000	3.025381  
367.000000	2.985267  
367.500000	3.027111  
368.000000	3.180568  
368.500000	3.338079  
369.000000	3.619010  
369.500000	4.001801  
370.000000	4.270576  
370.500000	4.487962  
371.000000	4.631246  
371.500000	4.493286  
372.000000	4.219361  
372.500000	3.856830  
373.000000	3.495244  
373.500000	3.171657  
374.000000	2.981291  
374.500000	2.812496  
375.000000	2.779436  
375.500000	2.866172  
376.000000	2.942092  
376.500000	2.999920  
377.000000	3.024683  
377.500000	3.021361  
378.000000	2.985907  
378.500000	2.906238  
379.000000	2.747843  
379.500000	2.686642  
380.000000	2.671608  
380.500000	2.707924  
381.000000	2.779219  
381.500000	2.911550  
382.000000	3.001849  
382.500000	3.023834  
383.000000	2.952933  
383.500000	2.798386  
384.000000	2.750156  
384.500000	2.757375  
385.000000	2.784184  
385.500000	2.797802  
386.000000	2.884308  
386.500000	2.907941  
387.000000	2.906446  
387.500000	2.838867  
388.000000	2.679764  
388.500000	2.543127  
389.000000	2.413631  
389.500000	2.326449  
390.000000	2.235617  
390.500000	2.215513  
391.000000	2.168435  
391.500000	2.125266  
392.000000	2.060277  
392.500000	2.032603  
393.000000	1.976517  
393.500000	1.908841  
394.000000	1.861161  
394.500000	1.802275  
395.000000	1.758102  
395.500000	1.697166  
396.000000	1.690933  
396.500000	1.711380  
397.000000	1.825476  
397.500000	1.967917  
398.000000	2.081548  
398.500000	2.149783  
399.000000	2.135960  
399.500000	2.029244  
400.000000	1.873794  
400.500000	1.713982  
401.000000	1.574223  
401.500000	1.497915  
402.000000	1.426967  
402.500000	1.401690  
403.000000	1.405074  
403.500000	1.414536  
404.000000	1.403048  
404.500000	1.365386  
405.000000	1.325683  
405.500000	1.341450  
406.000000	1.400497  
406.500000	1.452088  
407.000000	1.505685  
407.500000	1.553621  
408.000000	1.602444  
408.500000	1.620283  
409.000000	1.577550  
409.500000	1.478297  
410.000000	1.388046  
410.500000	1.321489  
411.000000	1.244906  
411.500000	1.181573  
412.000000	1.107121  
412.500000	1.088086  
413.000000	1.127925  
413.500000	1.195092  
414.000000	1.263408  
414.500000	1.306943  
415.000000	1.325646  
415.500000	1.305073  
416.000000	1.271702  
416.500000	1.191928  
417.000000	1.127617  
417.500000	1.083549  
418.000000	1.054005  
418.500000	1.046580  
419.000000	1.044241  
419.500000	1.053501  
420.000000	1.019850  
420.500000	0.968346  
421.000000	0.893102  
421.500000	0.844366  
422.000000	0.853090  
422.500000	0.869772  
423.000000	0.917557  
423.500000	0.975593  
424.000000	1.047445  
424.500000	1.107092  
425.000000	1.106840  
425.500000	1.050083  
426.000000	0.981156  
426.500000	0.962161  
427.000000	0.934002  
427.500000	0.922536  
428.000000	0.935077  
428.500000	0.947038  
429.000000	0.987894  
429.500000	1.026455  
430.000000	1.041779  
430.500000	1.024082  
431.000000	1.019710  
431.500000	1.013463  
432.000000	1.025685  
432.500000	1.054538  
433.000000	1.060326  
433.500000	1.063063  
434.000000	1.075650  
434.500000	1.075798  
435.000000	1.040425  
435.500000	0.989365  
436.000000	0.925458  
436.500000	0.879290  
437.000000	0.852640  
437.500000	0.824172  
438.000000	0.799055  
438.500000	0.796731  
439.000000	0.811314  
439.500000	0.829241  
440.000000	0.852927  
440.500000	0.856975  
441.000000	0.874005  
441.500000	0.890909  
442.000000	0.896633  
442.500000	0.903004  
443.000000	0.899025  
443.500000	0.885343  
444.000000	0.864128  
444.500000	0.853178  

