PE FL                   SPECTRUM    ASCII       PEDS        1.60        
  -1
PMAD51~1
23/10/10
17:03:32.00
23/10/10
17:03:32.00


444.500000
1









LS55
30.00
5.00
5.00
SCAN
1
20
100
100
0
500
0
2
0
1
7
ON
500 450 
1 0 0
#HDR
-1
-1
#GR
NM

0.00002384185791015625
0.0
300.000000
0.500000
290
8
80.813781
-1.904361
#DATA
300.000000	6.761000  
300.500000	3.804387  
301.000000	1.422153  
301.500000	-0.281683 
302.000000	-1.429522 
302.500000	-1.904361 
303.000000	-1.894152 
303.500000	-1.499389 
304.000000	-1.036271 
304.500000	-0.688463 
305.000000	-0.780162 
305.500000	-0.978385 
306.000000	-0.987294 
306.500000	-0.969219 
307.000000	-0.820109 
307.500000	-0.745610 
308.000000	-0.703116 
308.500000	-0.724010 
309.000000	-0.760553 
309.500000	-1.057613 
310.000000	-1.248988 
310.500000	-1.097005 
311.000000	-0.734595 
311.500000	0.022752  
312.000000	0.968755  
312.500000	2.165239  
313.000000	3.418803  
313.500000	4.633586  
314.000000	5.606052  
314.500000	6.523383  
315.000000	7.618489  
315.500000	8.735243  
316.000000	10.093315 
316.500000	11.384751 
317.000000	12.665691 
317.500000	13.860435 
318.000000	14.913798 
318.500000	15.774933 
319.000000	16.640330 
319.500000	17.516666 
320.000000	18.407377 
320.500000	19.407876 
321.000000	20.409181 
321.500000	21.278931 
322.000000	21.751830 
322.500000	22.061085 
323.000000	22.543794 
323.500000	23.200780 
324.000000	23.724617 
324.500000	24.316933 
325.000000	24.896406 
325.500000	25.489432 
326.000000	26.028018 
326.500000	26.161965 
327.000000	25.978675 
327.500000	26.067949 
328.000000	26.181925 
328.500000	26.205100 
329.000000	26.371981 
329.500000	26.476605 
330.000000	26.610494 
330.500000	26.727166 
331.000000	26.572152 
331.500000	26.080012 
332.000000	26.038948 
332.500000	26.078048 
333.000000	26.178307 
333.500000	26.527598 
334.000000	26.880252 
334.500000	27.330175 
335.000000	27.725623 
335.500000	28.103480 
336.000000	28.307094 
336.500000	28.807423 
337.000000	29.341765 
337.500000	29.830223 
338.000000	30.449070 
338.500000	31.470100 
339.000000	32.843264 
339.500000	34.540105 
340.000000	36.933923 
340.500000	39.895173 
341.000000	43.590564 
341.500000	47.769789 
342.000000	52.315995 
342.500000	56.939350 
343.000000	61.857753 
343.500000	66.617628 
344.000000	70.873112 
344.500000	74.708913 
345.000000	77.792455 
345.500000	79.972333 
346.000000	80.813781 
346.500000	80.530299 
347.000000	78.778810 
347.500000	76.153244 
348.000000	72.743221 
348.500000	68.609497 
349.000000	64.415038 
349.500000	60.170781 
350.000000	55.866049 
350.500000	51.272906 
351.000000	46.775557 
351.500000	42.099153 
352.000000	37.506360 
352.500000	33.096108 
353.000000	28.732551 
353.500000	24.819845 
354.000000	21.404154 
354.500000	18.338806 
355.000000	15.692656 
355.500000	13.503695 
356.000000	11.529150 
356.500000	9.897388  
357.000000	8.716413  
357.500000	7.663045  
358.000000	6.912701  
358.500000	6.343822  
359.000000	5.816986  
359.500000	5.372421  
360.000000	4.973576  
360.500000	4.564076  
361.000000	4.213898  
361.500000	3.964256  
362.000000	3.807028  
362.500000	3.668828  
363.000000	3.501739  
363.500000	3.376283  
364.000000	3.210476  
364.500000	2.935806  
365.000000	2.625696  
365.500000	2.253068  
366.000000	1.887807  
366.500000	1.574031  
367.000000	1.279680  
367.500000	1.081280  
368.000000	1.133419  
368.500000	1.279573  
369.000000	1.413416  
369.500000	1.455791  
370.000000	1.425941  
370.500000	1.341360  
371.000000	1.277695  
371.500000	1.151875  
372.000000	1.068547  
372.500000	1.083868  
373.000000	1.143817  
373.500000	1.320073  
374.000000	1.475672  
374.500000	1.533029  
375.000000	1.580653  
375.500000	1.622747  
376.000000	1.609435  
376.500000	1.577959  
377.000000	1.524762  
377.500000	1.369521  
378.000000	1.300340  
378.500000	1.245314  
379.000000	1.052104  
379.500000	0.847544  
380.000000	0.721423  
380.500000	0.656596  
381.000000	0.705530  
381.500000	0.852075  
382.000000	1.041203  
382.500000	1.306190  
383.000000	1.658010  
383.500000	1.882482  
384.000000	2.038927  
384.500000	2.094110  
385.000000	2.073185  
385.500000	1.964149  
386.000000	1.802624  
386.500000	1.682599  
387.000000	1.611159  
387.500000	1.631131  
388.000000	1.643329  
388.500000	1.686563  
389.000000	1.728613  
389.500000	1.719330  
390.000000	1.617518  
390.500000	1.461672  
391.000000	1.335498  
391.500000	1.234910  
392.000000	1.227073  
392.500000	1.258683  
393.000000	1.309000  
393.500000	1.413392  
394.000000	1.526549  
394.500000	1.627544  
395.000000	1.689298  
395.500000	1.726954  
396.000000	1.715022  
396.500000	1.661955  
397.000000	1.595634  
397.500000	1.515095  
398.000000	1.432763  
398.500000	1.339987  
399.000000	1.278028  
399.500000	1.215223  
400.000000	1.187710  
400.500000	1.186160  
401.000000	1.180561  
401.500000	1.183494  
402.000000	1.253496  
402.500000	1.324618  
403.000000	1.350433  
403.500000	1.392036  
404.000000	1.367940  
404.500000	1.309386  
405.000000	1.281384  
405.500000	1.230072  
406.000000	1.152602  
406.500000	1.131536  
407.000000	1.121169  
407.500000	1.109035  
408.000000	1.127290  
408.500000	1.123450  
409.000000	1.086432  
409.500000	1.059936  
410.000000	1.027044  
410.500000	0.971713  
411.000000	0.925150  
411.500000	0.850219  
412.000000	0.782354  
412.500000	0.768625  
413.000000	0.798999  
413.500000	0.874234  
414.000000	1.013357  
414.500000	1.182374  
415.000000	1.363078  
415.500000	1.541989  
416.000000	1.602691  
416.500000	1.575327  
417.000000	1.483986  
417.500000	1.349125  
418.000000	1.194812  
418.500000	1.054367  
419.000000	0.956355  
419.500000	0.909028  
420.000000	0.919362  
420.500000	0.914139  
421.000000	0.899550  
421.500000	0.880614  
422.000000	0.870937  
422.500000	0.839127  
423.000000	0.801678  
423.500000	0.765905  
424.000000	0.750947  
424.500000	0.754153  
425.000000	0.772152  
425.500000	0.808710  
426.000000	0.848423  
426.500000	0.927995  
427.000000	1.033359  
427.500000	1.110792  
428.000000	1.166335  
428.500000	1.211225  
429.000000	1.232169  
429.500000	1.223920  
430.000000	1.210932  
430.500000	1.166729  
431.000000	1.122557  
431.500000	1.117538  
432.000000	1.120427  
432.500000	1.110394  
433.000000	1.099964  
433.500000	1.094892  
434.000000	1.089776  
434.500000	1.107348  
435.000000	1.107417  
435.500000	1.082454  
436.000000	1.055302  
436.500000	1.020164  
437.000000	0.946060  
437.500000	0.863316  
438.000000	0.782940  
438.500000	0.717422  
439.000000	0.708894  
439.500000	0.722121  
440.000000	0.767679  
440.500000	0.823804  
441.000000	0.906985  
441.500000	0.966359  
442.000000	1.003551  
442.500000	1.001633  
443.000000	0.967001  
443.500000	0.942262  
444.000000	0.907016  
444.500000	0.881373  

