PE FL                   SPECTRUM    ASCII       PEDS        1.60        
  -1
PM97D7~1
23/10/10
16:49:28.00
23/10/10
16:49:28.00


444.500000
1









LS55
45.00
5.00
5.00
SCAN
1
20
100
100
0
500
0
2
0
1
7
ON
500 450 
1 0 0
#HDR
-1
-1
#GR
NM

0.00002384185791015625
0.0
300.000000
0.500000
290
8
55.590975
0.504094
#DATA
300.000000	10.402000 
300.500000	13.886797 
301.000000	17.218364 
301.500000	19.806706 
302.000000	21.762696 
302.500000	22.717131 
303.000000	22.917705 
303.500000	22.396306 
304.000000	21.598094 
304.500000	20.566281 
305.000000	19.556809 
305.500000	19.152291 
306.000000	18.883304 
306.500000	18.985196 
307.000000	19.312500 
307.500000	19.985170 
308.000000	20.686279 
308.500000	21.475838 
309.000000	22.268303 
309.500000	23.007743 
310.000000	24.229792 
310.500000	25.443166 
311.000000	26.493291 
311.500000	27.527872 
312.000000	28.496026 
312.500000	28.991834 
313.000000	29.171881 
313.500000	28.834946 
314.000000	28.070884 
314.500000	27.257896 
315.000000	26.289244 
315.500000	25.207633 
316.000000	24.406296 
316.500000	24.046198 
317.000000	23.908484 
317.500000	24.013215 
318.000000	24.318458 
318.500000	24.811451 
319.000000	25.353131 
319.500000	25.778168 
320.000000	25.915607 
320.500000	26.036863 
321.000000	25.949166 
321.500000	25.836864 
322.000000	25.511930 
322.500000	24.876449 
323.000000	24.296430 
323.500000	23.805299 
324.000000	23.076127 
324.500000	22.335549 
325.000000	21.849033 
325.500000	21.235020 
326.000000	20.949185 
326.500000	20.916259 
327.000000	21.059585 
327.500000	21.374602 
328.000000	22.120368 
328.500000	22.805446 
329.000000	23.262774 
329.500000	23.604520 
330.000000	23.513372 
330.500000	23.035369 
331.000000	22.454834 
331.500000	21.784789 
332.000000	20.878054 
332.500000	20.287942 
333.000000	19.961640 
333.500000	19.985554 
334.000000	20.410746 
334.500000	21.186586 
335.000000	22.118377 
335.500000	23.390854 
336.000000	25.021779 
336.500000	26.536317 
337.000000	28.317101 
337.500000	30.723775 
338.000000	33.843991 
338.500000	37.230417 
339.000000	40.655006 
339.500000	43.998711 
340.000000	47.443994 
340.500000	50.513958 
341.000000	52.804342 
341.500000	54.235201 
342.000000	55.124248 
342.500000	55.590975 
343.000000	55.467649 
343.500000	54.533568 
344.000000	52.996697 
344.500000	51.271121 
345.000000	49.039488 
345.500000	46.442928 
346.000000	43.309912 
346.500000	40.190157 
347.000000	37.272500 
347.500000	34.462886 
348.000000	31.413302 
348.500000	28.299872 
349.000000	25.372509 
349.500000	22.491878 
350.000000	19.858909 
350.500000	17.231184 
351.000000	15.047508 
351.500000	13.322519 
352.000000	12.135033 
352.500000	11.198878 
353.000000	10.482214 
353.500000	9.881007  
354.000000	9.290621  
354.500000	8.732691  
355.000000	7.891642  
355.500000	6.885477  
356.000000	5.792425  
356.500000	4.896885  
357.000000	4.140132  
357.500000	3.639161  
358.000000	3.393720  
358.500000	3.344596  
359.000000	3.437154  
359.500000	3.481790  
360.000000	3.395499  
360.500000	3.169958  
361.000000	2.956171  
361.500000	2.698460  
362.000000	2.500470  
362.500000	2.437292  
363.000000	2.461959  
363.500000	2.572142  
364.000000	2.670386  
364.500000	2.710287  
365.000000	2.709928  
365.500000	2.761845  
366.000000	2.784542  
366.500000	2.805509  
367.000000	2.855752  
367.500000	2.960857  
368.000000	3.060240  
368.500000	3.093359  
369.000000	3.086137  
369.500000	3.057246  
370.000000	2.961695  
370.500000	2.810590  
371.000000	2.678888  
371.500000	2.536208  
372.000000	2.464225  
372.500000	2.428299  
373.000000	2.409318  
373.500000	2.458950  
374.000000	2.648667  
374.500000	2.806120  
375.000000	2.868707  
375.500000	2.872640  
376.000000	2.795275  
376.500000	2.715696  
377.000000	2.567822  
377.500000	2.430142  
378.000000	2.293009  
378.500000	2.255116  
379.000000	2.265821  
379.500000	2.275625  
380.000000	2.285062  
380.500000	2.340323  
381.000000	2.441552  
381.500000	2.471212  
382.000000	2.479860  
382.500000	2.422342  
383.000000	2.281295  
383.500000	2.067542  
384.000000	1.791529  
384.500000	1.464560  
385.000000	1.170905  
385.500000	0.990770  
386.000000	0.916592  
386.500000	0.951222  
387.000000	1.065280  
387.500000	1.226528  
388.000000	1.397101  
388.500000	1.574782  
389.000000	1.725174  
389.500000	1.809992  
390.000000	1.847302  
390.500000	1.871068  
391.000000	1.881963  
391.500000	1.871602  
392.000000	1.813735  
392.500000	1.690172  
393.000000	1.564891  
393.500000	1.472898  
394.000000	1.355726  
394.500000	1.202703  
395.000000	1.075136  
395.500000	0.994644  
396.000000	0.966293  
396.500000	0.968818  
397.000000	0.967167  
397.500000	1.019422  
398.000000	1.168400  
398.500000	1.340030  
399.000000	1.461813  
399.500000	1.550029  
400.000000	1.597621  
400.500000	1.591123  
401.000000	1.578613  
401.500000	1.511582  
402.000000	1.437746  
402.500000	1.416294  
403.000000	1.389361  
403.500000	1.361329  
404.000000	1.341630  
404.500000	1.320912  
405.000000	1.279814  
405.500000	1.251723  
406.000000	1.187037  
406.500000	1.133989  
407.000000	1.132175  
407.500000	1.094498  
408.000000	1.058307  
408.500000	1.030438  
409.000000	1.002643  
409.500000	1.002243  
410.000000	1.017849  
410.500000	1.004116  
411.000000	1.019288  
411.500000	1.093421  
412.000000	1.128160  
412.500000	1.149893  
413.000000	1.122239  
413.500000	1.049842  
414.000000	1.022766  
414.500000	0.989192  
415.000000	0.934270  
415.500000	0.899365  
416.000000	0.893678  
416.500000	0.892051  
417.000000	0.892517  
417.500000	0.882085  
418.000000	0.838136  
418.500000	0.845237  
419.000000	0.848549  
419.500000	0.832662  
420.000000	0.844573  
420.500000	0.846907  
421.000000	0.860085  
421.500000	0.864885  
422.000000	0.862306  
422.500000	0.850329  
423.000000	0.846571  
423.500000	0.847031  
424.000000	0.817624  
424.500000	0.798202  
425.000000	0.777932  
425.500000	0.775305  
426.000000	0.772527  
426.500000	0.771124  
427.000000	0.780187  
427.500000	0.783910  
428.000000	0.817411  
428.500000	0.835544  
429.000000	0.836128  
429.500000	0.847303  
430.000000	0.848356  
430.500000	0.847069  
431.000000	0.837188  
431.500000	0.842673  
432.000000	0.834801  
432.500000	0.845539  
433.000000	0.853434  
433.500000	0.822800  
434.000000	0.802434  
434.500000	0.775987  
435.000000	0.753941  
435.500000	0.737269  
436.000000	0.712984  
436.500000	0.680180  
437.000000	0.665196  
437.500000	0.647024  
438.000000	0.604781  
438.500000	0.568375  
439.000000	0.535325  
439.500000	0.507039  
440.000000	0.520544  
440.500000	0.541151  
441.000000	0.565313  
441.500000	0.595392  
442.000000	0.625455  
442.500000	0.624110  
443.000000	0.612330  
443.500000	0.587135  
444.000000	0.538027  
444.500000	0.504094  

