PE FL                   SPECTRUM    ASCII       PEDS        1.60        
  -1
PM47D7~1
23/10/10
16:46:37.00
23/10/10
16:46:37.00


444.500000
1









LS55
20.00
5.00
5.00
SCAN
1
20
100
100
0
500
0
2
0
1
7
ON
500 450 
1 0 0
#HDR
-1
-1
#GR
NM

0.00002384185791015625
0.0
300.000000
0.500000
290
8
105.012435
-3.664200
#DATA
300.000000	5.263000   
300.500000	2.511427   
301.000000	0.072405   
301.500000	-1.405696  
302.000000	-2.195797  
302.500000	-2.258429  
303.000000	-1.960362  
303.500000	-1.500887  
304.000000	-1.463119  
304.500000	-1.736137  
305.000000	-2.163865  
305.500000	-2.719302  
306.000000	-3.062817  
306.500000	-3.429796  
307.000000	-3.613548  
307.500000	-3.664200  
308.000000	-3.546084  
308.500000	-3.403096  
309.000000	-3.355440  
309.500000	-3.262257  
310.000000	-3.052185  
310.500000	-2.733973  
311.000000	-2.357354  
311.500000	-1.957531  
312.000000	-1.737656  
312.500000	-1.708788  
313.000000	-1.679128  
313.500000	-1.991170  
314.000000	-2.508645  
314.500000	-2.873006  
315.000000	-3.236934  
315.500000	-3.267070  
316.000000	-2.955635  
316.500000	-2.383778  
317.000000	-1.892566  
317.500000	-1.202094  
318.000000	-0.512188  
318.500000	0.144077   
319.000000	0.983538   
319.500000	1.681837   
320.000000	2.485149   
320.500000	3.375871   
321.000000	4.526473   
321.500000	5.524024   
322.000000	6.603169   
322.500000	7.682225   
323.000000	8.763907   
323.500000	9.964797   
324.000000	11.089333  
324.500000	12.175019  
325.000000	12.946687  
325.500000	13.715276  
326.000000	14.155679  
326.500000	14.380260  
327.000000	14.410856  
327.500000	14.464087  
328.000000	14.727314  
328.500000	15.153294  
329.000000	15.851774  
329.500000	16.406810  
330.000000	17.080330  
330.500000	17.872893  
331.000000	18.750452  
331.500000	19.712647  
332.000000	20.567454  
332.500000	22.050145  
333.000000	23.933897  
333.500000	26.248427  
334.000000	28.582066  
334.500000	30.893056  
335.000000	33.402416  
335.500000	35.788395  
336.000000	38.396579  
336.500000	40.706245  
337.000000	43.913312  
337.500000	47.800330  
338.000000	52.753803  
338.500000	58.622732  
339.000000	65.149636  
339.500000	72.369353  
340.000000	79.311156  
340.500000	86.136520  
341.000000	92.013147  
341.500000	97.161943  
342.000000	100.936799 
342.500000	103.566770 
343.000000	104.883949 
343.500000	105.012435 
344.000000	104.190675 
344.500000	102.039359 
345.000000	98.586033  
345.500000	94.173836  
346.000000	89.259953  
346.500000	83.633608  
347.000000	77.784981  
347.500000	71.487230  
348.000000	65.166814  
348.500000	59.124041  
349.000000	53.511070  
349.500000	47.824997  
350.000000	42.294678  
350.500000	37.280448  
351.000000	32.680436  
351.500000	28.678930  
352.000000	24.914463  
352.500000	21.496519  
353.000000	18.471737  
353.500000	16.194886  
354.000000	14.295496  
354.500000	12.494595  
355.000000	10.991453  
355.500000	9.791487   
356.000000	8.867425   
356.500000	8.093156   
357.000000	7.393099   
357.500000	6.731751   
358.000000	6.227319   
358.500000	5.780218   
359.000000	5.298174   
359.500000	4.771778   
360.000000	4.285988   
360.500000	3.772051   
361.000000	3.430330   
361.500000	3.223705   
362.000000	3.004369   
362.500000	2.800806   
363.000000	2.657359   
363.500000	2.585040   
364.000000	2.448810   
364.500000	2.233862   
365.000000	1.884065   
365.500000	1.626802   
366.000000	1.465685   
366.500000	1.316583   
367.000000	1.177585   
367.500000	1.186036   
368.000000	1.304110   
368.500000	1.524423   
369.000000	1.764586   
369.500000	1.886160   
370.000000	2.030793   
370.500000	2.145114   
371.000000	2.193529   
371.500000	2.078175   
372.000000	1.888799   
372.500000	1.673867   
373.000000	1.512794   
373.500000	1.359180   
374.000000	1.164322   
374.500000	1.103520   
375.000000	1.149676   
375.500000	1.320284   
376.000000	1.484551   
376.500000	1.568658   
377.000000	1.627713   
377.500000	1.755466   
378.000000	1.817388   
378.500000	1.689079   
379.000000	1.578365   
379.500000	1.476456   
380.000000	1.390072   
380.500000	1.319402   
381.000000	1.178294   
381.500000	1.043926   
382.000000	1.045025   
382.500000	1.087962   
383.000000	1.058815   
383.500000	1.100984   
384.000000	1.181102   
384.500000	1.277317   
385.000000	1.357552   
385.500000	1.397409   
386.000000	1.383704   
386.500000	1.358284   
387.000000	1.292680   
387.500000	1.215401   
388.000000	1.147195   
388.500000	1.112843   
389.000000	1.098083   
389.500000	1.106170   
390.000000	1.140682   
390.500000	1.200436   
391.000000	1.243468   
391.500000	1.239125   
392.000000	1.276651   
392.500000	1.321291   
393.000000	1.389802   
393.500000	1.471381   
394.000000	1.526327   
394.500000	1.560493   
395.000000	1.602407   
395.500000	1.620646   
396.000000	1.523486   
396.500000	1.429320   
397.000000	1.322566   
397.500000	1.244356   
398.000000	1.230079   
398.500000	1.254901   
399.000000	1.312446   
399.500000	1.451875   
400.000000	1.634705   
400.500000	1.766338   
401.000000	1.835401   
401.500000	1.856118   
402.000000	1.800403   
402.500000	1.709601   
403.000000	1.579859   
403.500000	1.431892   
404.000000	1.324391   
404.500000	1.282517   
405.000000	1.256357   
405.500000	1.211650   
406.000000	1.186065   
406.500000	1.177024   
407.000000	1.168385   
407.500000	1.157028   
408.000000	1.167113   
408.500000	1.213728   
409.000000	1.307046   
409.500000	1.427264   
410.000000	1.491894   
410.500000	1.502516   
411.000000	1.510586   
411.500000	1.478909   
412.000000	1.422311   
412.500000	1.360993   
413.000000	1.313119   
413.500000	1.350704   
414.000000	1.460524   
414.500000	1.600208   
415.000000	1.683526   
415.500000	1.764441   
416.000000	1.794480   
416.500000	1.774569   
417.000000	1.678053   
417.500000	1.525019   
418.000000	1.379933   
418.500000	1.250423   
419.000000	1.162465   
419.500000	1.111167   
420.000000	1.110047   
420.500000	1.138339   
421.000000	1.180411   
421.500000	1.206224   
422.000000	1.208998   
422.500000	1.203942   
423.000000	1.176439   
423.500000	1.128976   
424.000000	1.109391   
424.500000	1.107465   
425.000000	1.125904   
425.500000	1.143946   
426.000000	1.158008   
426.500000	1.164269   
427.000000	1.167999   
427.500000	1.176639   
428.000000	1.140922   
428.500000	1.119205   
429.000000	1.111604   
429.500000	1.127290   
430.000000	1.131957   
430.500000	1.124307   
431.000000	1.102400   
431.500000	1.075237   
432.000000	1.053907   
432.500000	1.024456   
433.000000	1.004196   
433.500000	0.984777   
434.000000	1.003055   
434.500000	1.033307   
435.000000	1.061698   
435.500000	1.089615   
436.000000	1.135006   
436.500000	1.197841   
437.000000	1.231459   
437.500000	1.259801   
438.000000	1.264020   
438.500000	1.283605   
439.000000	1.304856   
439.500000	1.292748   
440.000000	1.262055   
440.500000	1.248800   
441.000000	1.251802   
441.500000	1.233700   
442.000000	1.190767   
442.500000	1.125837   
443.000000	1.079108   
443.500000	1.051987   
444.000000	1.009118   
444.500000	0.949366   

