PE FL                   SPECTRUM    ASCII       PEDS        1.60        
  -1
PM87D7~1
23/10/10
16:48:54.00
23/10/10
16:48:54.00


444.500000
1









LS55
40.00
5.00
5.00
SCAN
1
20
100
100
0
500
0
2
0
1
7
ON
500 450 
1 0 0
#HDR
-1
-1
#GR
NM

0.00002384185791015625
0.0
300.000000
0.500000
290
8
69.789920
0.497674
#DATA
300.000000	5.495000  
300.500000	5.920267  
301.000000	6.528588  
301.500000	7.111945  
302.000000	7.732356  
302.500000	8.480977  
303.000000	8.877805  
303.500000	9.500332  
304.000000	10.333520 
304.500000	11.162271 
305.000000	12.047391 
305.500000	13.407899 
306.000000	14.727206 
306.500000	16.280805 
307.000000	17.708476 
307.500000	18.477258 
308.000000	19.093931 
308.500000	19.488074 
309.000000	19.359117 
309.500000	19.092488 
310.000000	19.343893 
310.500000	19.761462 
311.000000	20.361295 
311.500000	21.232677 
312.000000	22.084800 
312.500000	23.150951 
313.000000	24.177820 
313.500000	24.365968 
314.000000	23.819354 
314.500000	23.611964 
315.000000	23.422571 
315.500000	23.150050 
316.000000	22.813031 
316.500000	22.588999 
317.000000	22.827105 
317.500000	23.637926 
318.000000	24.324218 
318.500000	24.590810 
319.000000	25.160534 
319.500000	25.751473 
320.000000	26.279452 
320.500000	26.490558 
321.000000	26.380521 
321.500000	26.290524 
322.000000	26.448671 
322.500000	26.538060 
323.000000	26.249190 
323.500000	26.171932 
324.000000	26.213392 
324.500000	26.392484 
325.000000	26.472843 
325.500000	26.443649 
326.000000	26.428343 
326.500000	26.600441 
327.000000	26.613645 
327.500000	26.516985 
328.000000	26.368607 
328.500000	26.290758 
329.000000	26.021588 
329.500000	25.762446 
330.000000	25.221420 
330.500000	24.518738 
331.000000	24.049475 
331.500000	23.682835 
332.000000	23.291398 
332.500000	22.904492 
333.000000	22.830258 
333.500000	22.606595 
334.000000	22.728108 
334.500000	23.081719 
335.000000	23.616922 
335.500000	24.753936 
336.000000	26.788208 
336.500000	29.364007 
337.000000	32.473041 
337.500000	36.094307 
338.000000	39.862957 
338.500000	43.867413 
339.000000	47.861592 
339.500000	51.643100 
340.000000	55.227525 
340.500000	58.951593 
341.000000	62.362720 
341.500000	65.286333 
342.000000	67.747210 
342.500000	69.230791 
343.000000	69.789920 
343.500000	69.163957 
344.000000	67.541727 
344.500000	64.792206 
345.000000	61.428859 
345.500000	57.442198 
346.000000	53.062922 
346.500000	48.740188 
347.000000	44.441236 
347.500000	40.320799 
348.000000	36.508676 
348.500000	33.251317 
349.000000	30.237691 
349.500000	27.538142 
350.000000	24.949192 
350.500000	22.311918 
351.000000	19.851973 
351.500000	17.501121 
352.000000	15.159450 
352.500000	13.158437 
353.000000	11.566356 
353.500000	10.294359 
354.000000	9.476568  
354.500000	9.036476  
355.000000	8.713512  
355.500000	8.387597  
356.000000	8.010800  
356.500000	7.302166  
357.000000	6.674386  
357.500000	5.884611  
358.000000	5.010540  
358.500000	4.097345  
359.000000	3.383783  
359.500000	2.908213  
360.000000	2.650164  
360.500000	2.449106  
361.000000	2.220832  
361.500000	2.218006  
362.000000	2.285145  
362.500000	2.318240  
363.000000	2.263612  
363.500000	2.177369  
364.000000	2.161421  
364.500000	2.240416  
365.000000	2.213241  
365.500000	2.030160  
366.000000	1.828219  
366.500000	1.661362  
367.000000	1.522308  
367.500000	1.422119  
368.000000	1.259298  
368.500000	1.187799  
369.000000	1.279486  
369.500000	1.416393  
370.000000	1.528944  
370.500000	1.617423  
371.000000	1.676217  
371.500000	1.729544  
372.000000	1.763961  
372.500000	1.680881  
373.000000	1.490990  
373.500000	1.372988  
374.000000	1.308953  
374.500000	1.318285  
375.000000	1.369167  
375.500000	1.408331  
376.000000	1.508464  
376.500000	1.634684  
377.000000	1.715249  
377.500000	1.710183  
378.000000	1.616348  
378.500000	1.484500  
379.000000	1.366736  
379.500000	1.243298  
380.000000	1.106167  
380.500000	0.985285  
381.000000	0.872715  
381.500000	0.814367  
382.000000	0.860811  
382.500000	0.886844  
383.000000	0.896014  
383.500000	0.984188  
384.000000	1.127351  
384.500000	1.263437  
385.000000	1.398865  
385.500000	1.492702  
386.000000	1.527875  
386.500000	1.639508  
387.000000	1.651867  
387.500000	1.607808  
388.000000	1.530883  
388.500000	1.479103  
389.000000	1.378082  
389.500000	1.291130  
390.000000	1.243705  
390.500000	1.211419  
391.000000	1.306696  
391.500000	1.388302  
392.000000	1.422138  
392.500000	1.445975  
393.000000	1.484922  
393.500000	1.467699  
394.000000	1.427839  
394.500000	1.373121  
395.000000	1.292237  
395.500000	1.278442  
396.000000	1.278097  
396.500000	1.242352  
397.000000	1.210931  
397.500000	1.203518  
398.000000	1.190543  
398.500000	1.158752  
399.000000	1.105839  
399.500000	1.030761  
400.000000	1.019603  
400.500000	1.057611  
401.000000	1.053583  
401.500000	1.026083  
402.000000	1.026351  
402.500000	1.014077  
403.000000	0.987620  
403.500000	0.934169  
404.000000	0.868141  
404.500000	0.879063  
405.000000	0.902293  
405.500000	0.962957  
406.000000	1.023117  
406.500000	1.121782  
407.000000	1.205491  
407.500000	1.228260  
408.000000	1.186051  
408.500000	1.092741  
409.000000	0.992073  
409.500000	0.823939  
410.000000	0.687825  
410.500000	0.558369  
411.000000	0.504519  
411.500000	0.497674  
412.000000	0.527587  
412.500000	0.609620  
413.000000	0.720702  
413.500000	0.856398  
414.000000	0.937509  
414.500000	1.002978  
415.000000	1.035196  
415.500000	1.045665  
416.000000	1.023630  
416.500000	0.945072  
417.000000	0.896257  
417.500000	0.848175  
418.000000	0.830565  
418.500000	0.810233  
419.000000	0.804969  
419.500000	0.822447  
420.000000	0.845530  
420.500000	0.860553  
421.000000	0.837353  
421.500000	0.827026  
422.000000	0.818596  
422.500000	0.797202  
423.000000	0.747842  
423.500000	0.700955  
424.000000	0.680882  
424.500000	0.657887  
425.000000	0.655694  
425.500000	0.647211  
426.000000	0.650197  
426.500000	0.685003  
427.000000	0.722832  
427.500000	0.745417  
428.000000	0.768388  
428.500000	0.802221  
429.000000	0.811275  
429.500000	0.814577  
430.000000	0.813660  
430.500000	0.797440  
431.000000	0.809250  
431.500000	0.822869  
432.000000	0.826438  
432.500000	0.820843  
433.000000	0.822406  
433.500000	0.829851  
434.000000	0.834371  
434.500000	0.821068  
435.000000	0.793529  
435.500000	0.771794  
436.000000	0.745446  
436.500000	0.722883  
437.000000	0.691347  
437.500000	0.644445  
438.000000	0.613563  
438.500000	0.594957  
439.000000	0.575751  
439.500000	0.560248  
440.000000	0.560769  
440.500000	0.563447  
441.000000	0.583146  
441.500000	0.614420  
442.000000	0.615681  
442.500000	0.621401  
443.000000	0.632057  
443.500000	0.623879  
444.000000	0.610441  
444.500000	0.613608  

