PE FL                   SPECTRUM    ASCII       PEDS        1.60        
  -1
PM07E7~1
23/10/10
16:50:02.00
23/10/10
16:50:02.00


444.500000
1









LS55
50.00
5.00
5.00
SCAN
1
20
100
100
0
500
0
2
0
1
7
ON
500 450 
1 0 0
#HDR
-1
-1
#GR
NM

0.00002384185791015625
0.0
300.000000
0.500000
290
8
46.653563
0.557913
#DATA
300.000000	20.376000 
300.500000	21.447143 
301.000000	22.238437 
301.500000	22.688119 
302.000000	23.405221 
302.500000	24.045464 
303.000000	24.704805 
303.500000	24.985821 
304.000000	25.071430 
304.500000	25.221874 
305.000000	25.333119 
305.500000	25.324164 
306.000000	24.712298 
306.500000	23.950481 
307.000000	23.240824 
307.500000	23.010954 
308.000000	23.023530 
308.500000	22.888658 
309.000000	22.933002 
309.500000	23.135955 
310.000000	23.538694 
310.500000	23.870139 
311.000000	23.924931 
311.500000	23.903097 
312.000000	23.844701 
312.500000	24.084334 
313.000000	24.162824 
313.500000	24.174063 
314.000000	24.093307 
314.500000	24.265814 
315.000000	24.558822 
315.500000	24.673319 
316.000000	24.839287 
316.500000	24.665691 
317.000000	24.497515 
317.500000	24.129505 
318.000000	23.734281 
318.500000	23.220783 
319.000000	22.727596 
319.500000	22.401019 
320.000000	22.264464 
320.500000	22.691670 
321.000000	23.036272 
321.500000	23.385362 
322.000000	23.717225 
322.500000	23.892066 
323.000000	23.766887 
323.500000	23.223955 
324.000000	22.511663 
324.500000	21.957190 
325.000000	21.464957 
325.500000	20.949737 
326.000000	20.264381 
326.500000	19.834589 
327.000000	19.577204 
327.500000	19.494082 
328.000000	19.195306 
328.500000	18.964108 
329.000000	19.250606 
329.500000	19.659190 
330.000000	19.828762 
330.500000	19.456340 
331.000000	19.165041 
331.500000	18.833121 
332.000000	18.318922 
332.500000	17.734365 
333.000000	17.131140 
333.500000	17.031113 
334.000000	17.366260 
334.500000	17.905467 
335.000000	18.505578 
335.500000	19.559443 
336.000000	20.939181 
336.500000	22.416065 
337.000000	24.368318 
337.500000	26.647277 
338.000000	29.223126 
338.500000	32.228992 
339.000000	34.972362 
339.500000	37.639046 
340.000000	40.216693 
340.500000	42.472461 
341.000000	44.120031 
341.500000	45.468321 
342.000000	46.321221 
342.500000	46.653563 
343.000000	46.606674 
343.500000	45.745203 
344.000000	44.649316 
344.500000	43.229036 
345.000000	41.207402 
345.500000	38.744535 
346.000000	36.152826 
346.500000	33.306512 
347.000000	30.415363 
347.500000	27.589287 
348.000000	24.546588 
348.500000	21.988515 
349.000000	19.886650 
349.500000	17.952068 
350.000000	16.119624 
350.500000	14.546696 
351.000000	13.099167 
351.500000	11.945427 
352.000000	10.918275 
352.500000	9.745993  
353.000000	8.736528  
353.500000	8.009030  
354.000000	7.419585  
354.500000	6.779436  
355.000000	6.146656  
355.500000	5.463277  
356.000000	4.880378  
356.500000	4.505496  
357.000000	4.054143  
357.500000	3.659759  
358.000000	3.335091  
358.500000	3.081581  
359.000000	2.770851  
359.500000	2.324294  
360.000000	1.915896  
360.500000	1.581587  
361.000000	1.507683  
361.500000	1.494242  
362.000000	1.706925  
362.500000	2.074104  
363.000000	2.544242  
363.500000	3.006141  
364.000000	3.287977  
364.500000	3.384100  
365.000000	3.228499  
365.500000	3.059798  
366.000000	2.691273  
366.500000	2.400853  
367.000000	2.132488  
367.500000	2.004221  
368.000000	2.032503  
368.500000	2.178273  
369.000000	2.357466  
369.500000	2.468627  
370.000000	2.596708  
370.500000	2.602139  
371.000000	2.693980  
371.500000	2.723936  
372.000000	2.748375  
372.500000	2.715553  
373.000000	2.715339  
373.500000	2.673150  
374.000000	2.536173  
374.500000	2.372419  
375.000000	2.155067  
375.500000	2.014509  
376.000000	1.924241  
376.500000	1.995974  
377.000000	2.112296  
377.500000	2.288806  
378.000000	2.459637  
378.500000	2.571680  
379.000000	2.620383  
379.500000	2.562010  
380.000000	2.483271  
380.500000	2.360311  
381.000000	2.329293  
381.500000	2.311964  
382.000000	2.311891  
382.500000	2.316420  
383.000000	2.336086  
383.500000	2.352204  
384.000000	2.338797  
384.500000	2.339714  
385.000000	2.338582  
385.500000	2.374784  
386.000000	2.389650  
386.500000	2.374916  
387.000000	2.373509  
387.500000	2.401923  
388.000000	2.459339  
388.500000	2.477363  
389.000000	2.420095  
389.500000	2.367559  
390.000000	2.297317  
390.500000	2.208186  
391.000000	2.113997  
391.500000	2.055252  
392.000000	2.021468  
392.500000	2.080634  
393.000000	2.224886  
393.500000	2.376554  
394.000000	2.537837  
394.500000	2.641829  
395.000000	2.681921  
395.500000	2.687494  
396.000000	2.635500  
396.500000	2.477190  
397.000000	2.307638  
397.500000	2.138336  
398.000000	2.010662  
398.500000	1.904514  
399.000000	1.769264  
399.500000	1.638894  
400.000000	1.580558  
400.500000	1.614405  
401.000000	1.635644  
401.500000	1.675224  
402.000000	1.696243  
402.500000	1.777029  
403.000000	1.840159  
403.500000	1.835633  
404.000000	1.793840  
404.500000	1.744567  
405.000000	1.741416  
405.500000	1.741823  
406.000000	1.747343  
406.500000	1.710404  
407.000000	1.710721  
407.500000	1.709450  
408.000000	1.660188  
408.500000	1.558045  
409.000000	1.390588  
409.500000	1.244566  
410.000000	1.167433  
410.500000	1.101221  
411.000000	1.042325  
411.500000	1.066657  
412.000000	1.147195  
412.500000	1.230575  
413.000000	1.317803  
413.500000	1.360524  
414.000000	1.373893  
414.500000	1.419573  
415.000000	1.429128  
415.500000	1.364052  
416.000000	1.299999  
416.500000	1.239735  
417.000000	1.166754  
417.500000	1.097916  
418.000000	1.034150  
418.500000	0.985333  
419.000000	0.988285  
419.500000	0.997495  
420.000000	0.974805  
420.500000	0.961758  
421.000000	0.957276  
421.500000	0.933930  
422.000000	0.883695  
422.500000	0.829605  
423.000000	0.788443  
423.500000	0.768621  
424.000000	0.764501  
424.500000	0.741425  
425.000000	0.720138  
425.500000	0.694565  
426.000000	0.664606  
426.500000	0.637024  
427.000000	0.602779  
427.500000	0.578972  
428.000000	0.587686  
428.500000	0.614724  
429.000000	0.634592  
429.500000	0.676470  
430.000000	0.716097  
430.500000	0.735603  
431.000000	0.769916  
431.500000	0.775369  
432.000000	0.750437  
432.500000	0.729592  
433.000000	0.692539  
433.500000	0.627033  
434.000000	0.585860  
434.500000	0.565873  
435.000000	0.557913  
435.500000	0.579511  
436.000000	0.601613  
436.500000	0.614879  
437.000000	0.659252  
437.500000	0.697457  
438.000000	0.696836  
438.500000	0.691474  
439.000000	0.685656  
439.500000	0.690892  
440.000000	0.701156  
440.500000	0.708272  
441.000000	0.692042  
441.500000	0.696587  
442.000000	0.711045  
442.500000	0.706045  
443.000000	0.703861  
443.500000	0.706294  
444.000000	0.720885  
444.500000	0.747896  

