PE FL                   SPECTRUM    ASCII       PEDS        1.60        
  -1
PM37D7~1
23/10/10
16:46:03.00
23/10/10
16:46:03.00


444.500000
1









LS55
15.00
5.00
5.00
SCAN
1
20
100
100
0
500
0
2
0
1
7
ON
500 450 
1 0 0
#HDR
-1
-1
#GR
NM

0.00002384185791015625
0.0
300.000000
0.500000
290
8
100.762880
-4.331999
#DATA
300.000000	-4.331999  
300.500000	-3.643373  
301.000000	-3.026946  
301.500000	-2.280662  
302.000000	-1.852112  
302.500000	-1.390501  
303.000000	-1.201856  
303.500000	-0.926208  
304.000000	-1.077525  
304.500000	-1.121959  
305.000000	-1.450039  
305.500000	-1.723561  
306.000000	-1.821877  
306.500000	-2.094847  
307.000000	-2.366001  
307.500000	-2.579290  
308.000000	-2.471463  
308.500000	-2.525771  
309.000000	-2.434198  
309.500000	-2.576066  
310.000000	-2.736087  
310.500000	-2.638505  
311.000000	-2.635545  
311.500000	-2.838283  
312.000000	-2.801070  
312.500000	-2.488205  
313.000000	-2.120171  
313.500000	-1.715190  
314.000000	-1.393736  
314.500000	-1.390264  
315.000000	-1.336338  
315.500000	-1.370487  
316.000000	-1.847559  
316.500000	-2.256545  
317.000000	-2.582121  
317.500000	-2.676591  
318.000000	-2.670849  
318.500000	-2.475178  
319.000000	-2.387479  
319.500000	-2.041564  
320.000000	-1.620604  
320.500000	-1.353210  
321.000000	-1.117284  
321.500000	-0.983600  
322.000000	-0.726380  
322.500000	-0.472774  
323.000000	-0.130514  
323.500000	0.236583   
324.000000	0.943135   
324.500000	1.875467   
325.000000	3.014214   
325.500000	4.196795   
326.000000	5.369476   
326.500000	6.671205   
327.000000	7.845797   
327.500000	8.799009   
328.000000	9.513062   
328.500000	10.229933  
329.000000	10.837891  
329.500000	11.411065  
330.000000	11.704732  
330.500000	11.822444  
331.000000	12.153823  
331.500000	12.679899  
332.000000	13.304914  
332.500000	14.254090  
333.000000	15.527524  
333.500000	17.107755  
334.000000	19.171791  
334.500000	21.041934  
335.000000	23.146576  
335.500000	25.631927  
336.000000	28.663139  
336.500000	32.139747  
337.000000	36.513226  
337.500000	41.852144  
338.000000	48.159280  
338.500000	55.361254  
339.000000	62.480612  
339.500000	70.243114  
340.000000	77.975540  
340.500000	84.938184  
341.000000	90.545944  
341.500000	94.777267  
342.000000	97.860736  
342.500000	99.837916  
343.000000	100.762880 
343.500000	99.899023  
344.000000	98.695131  
344.500000	97.328809  
345.000000	95.158940  
345.500000	92.111204  
346.000000	88.256379  
346.500000	83.835601  
347.000000	78.963605  
347.500000	73.650252  
348.000000	67.434251  
348.500000	61.272292  
349.000000	55.751661  
349.500000	50.338702  
350.000000	45.209035  
350.500000	40.507687  
351.000000	36.195360  
351.500000	32.113932  
352.000000	28.444352  
352.500000	24.867308  
353.000000	21.515281  
353.500000	18.694118  
354.000000	16.085677  
354.500000	13.739816  
355.000000	11.939409  
355.500000	10.557656  
356.000000	9.452128   
356.500000	8.691673   
357.000000	7.976614   
357.500000	7.333461   
358.000000	6.730440   
358.500000	6.032043   
359.000000	5.289590   
359.500000	4.617749   
360.000000	4.124449   
360.500000	3.654678   
361.000000	3.385361   
361.500000	3.159165   
362.000000	3.109554   
362.500000	3.162563   
363.000000	3.230320   
363.500000	3.220383   
364.000000	3.121845   
364.500000	3.069448   
365.000000	2.909522   
365.500000	2.772991   
366.000000	2.539953   
366.500000	2.354396   
367.000000	2.164383   
367.500000	1.972940   
368.000000	1.742943   
368.500000	1.537072   
369.000000	1.508111   
369.500000	1.521760   
370.000000	1.628385   
370.500000	1.787353   
371.000000	1.976318   
371.500000	2.101622   
372.000000	2.137669   
372.500000	2.049762   
373.000000	1.895954   
373.500000	1.734126   
374.000000	1.528685   
374.500000	1.450427   
375.000000	1.454516   
375.500000	1.535191   
376.000000	1.569141   
376.500000	1.479248   
377.000000	1.351279   
377.500000	1.207141   
378.000000	1.030868   
378.500000	0.896136   
379.000000	0.978038   
379.500000	1.156264   
380.000000	1.479842   
380.500000	1.823797   
381.000000	2.046468   
381.500000	2.213004   
382.000000	2.275974   
382.500000	2.196259   
383.000000	1.983466   
383.500000	1.802385   
384.000000	1.570531   
384.500000	1.437114   
385.000000	1.376659   
385.500000	1.337232   
386.000000	1.414739   
386.500000	1.491088   
387.000000	1.545887   
387.500000	1.582434   
388.000000	1.673019   
388.500000	1.756500   
389.000000	1.835837   
389.500000	1.860967   
390.000000	1.835022   
390.500000	1.879546   
391.000000	1.863489   
391.500000	1.823419   
392.000000	1.744751   
392.500000	1.684278   
393.000000	1.628544   
393.500000	1.594383   
394.000000	1.568949   
394.500000	1.543267   
395.000000	1.585148   
395.500000	1.626664   
396.000000	1.674050   
396.500000	1.710081   
397.000000	1.792232   
397.500000	1.871393   
398.000000	1.959367   
398.500000	2.030402   
399.000000	2.061723   
399.500000	2.055792   
400.000000	1.969207   
400.500000	1.844453   
401.000000	1.696317   
401.500000	1.577271   
402.000000	1.473348   
402.500000	1.415284   
403.000000	1.405926   
403.500000	1.413617   
404.000000	1.437030   
404.500000	1.402328   
405.000000	1.405580   
405.500000	1.404266   
406.000000	1.423469   
406.500000	1.441639   
407.000000	1.485925   
407.500000	1.522933   
408.000000	1.520568   
408.500000	1.544767   
409.000000	1.540448   
409.500000	1.542290   
410.000000	1.496114   
410.500000	1.468755   
411.000000	1.438430   
411.500000	1.416139   
412.000000	1.415125   
412.500000	1.376789   
413.000000	1.365822   
413.500000	1.394617   
414.000000	1.444612   
414.500000	1.460086   
415.000000	1.520225   
415.500000	1.566764   
416.000000	1.607221   
416.500000	1.674943   
417.000000	1.740093   
417.500000	1.773370   
418.000000	1.820444   
418.500000	1.843720   
419.000000	1.835527   
419.500000	1.804936   
420.000000	1.722888   
420.500000	1.593698   
421.000000	1.466356   
421.500000	1.408050   
422.000000	1.377284   
422.500000	1.411115   
423.000000	1.459489   
423.500000	1.547190   
424.000000	1.630484   
424.500000	1.698139   
425.000000	1.724681   
425.500000	1.688182   
426.000000	1.650881   
426.500000	1.576219   
427.000000	1.540904   
427.500000	1.491921   
428.000000	1.470816   
428.500000	1.442965   
429.000000	1.428805   
429.500000	1.401478   
430.000000	1.378083   
430.500000	1.348615   
431.000000	1.284029   
431.500000	1.270107   
432.000000	1.273928   
432.500000	1.278049   
433.000000	1.283865   
433.500000	1.310632   
434.000000	1.318257   
434.500000	1.343095   
435.000000	1.344057   
435.500000	1.301637   
436.000000	1.265137   
436.500000	1.238314   
437.000000	1.216425   
437.500000	1.202646   
438.000000	1.208049   
438.500000	1.206957   
439.000000	1.241391   
439.500000	1.272749   
440.000000	1.301882   
440.500000	1.339637   
441.000000	1.376901   
441.500000	1.406103   
442.000000	1.419866   
442.500000	1.426507   
443.000000	1.419179   
443.500000	1.416319   
444.000000	1.394137   
444.500000	1.369316   

