PE FL                   SPECTRUM    ASCII       PEDS        1.60        
  -1
PM77D7~1
23/10/10
16:48:20.00
23/10/10
16:48:20.00


444.500000
1









LS55
35.00
5.00
5.00
SCAN
1
20
100
100
0
500
0
2
0
1
7
ON
500 450 
1 0 0
#HDR
-1
-1
#GR
NM

0.00002384185791015625
0.0
300.000000
0.500000
290
8
78.306409
-2.832987
#DATA
300.000000	-2.696000 
300.500000	-2.832987 
301.000000	-2.670275 
301.500000	-2.431156 
302.000000	-2.154131 
302.500000	-1.735264 
303.000000	-1.042257 
303.500000	-0.033027 
304.000000	1.201883  
304.500000	2.210091  
305.000000	3.302115  
305.500000	4.368725  
306.000000	5.402989  
306.500000	6.113270  
307.000000	6.341152  
307.500000	6.850402  
308.000000	7.702733  
308.500000	8.982076  
309.000000	10.251834 
309.500000	11.666998 
310.000000	13.104323 
310.500000	14.665716 
311.000000	16.011274 
311.500000	16.546176 
312.000000	16.981006 
312.500000	17.251633 
313.000000	17.598211 
313.500000	17.915840 
314.000000	18.174544 
314.500000	18.432728 
315.000000	19.078536 
315.500000	20.143722 
316.000000	21.063123 
316.500000	21.949388 
317.000000	22.871504 
317.500000	23.623738 
318.000000	23.902804 
318.500000	23.821289 
319.000000	23.411519 
319.500000	22.756725 
320.000000	22.228802 
320.500000	22.097651 
321.000000	22.113308 
321.500000	22.816615 
322.000000	23.799215 
322.500000	24.900524 
323.000000	26.256255 
323.500000	27.499154 
324.000000	28.408510 
324.500000	29.008405 
325.000000	29.521289 
325.500000	29.258817 
326.000000	29.023455 
326.500000	28.447945 
327.000000	27.668471 
327.500000	27.101926 
328.000000	26.766139 
328.500000	26.522162 
329.000000	26.422329 
329.500000	26.737710 
330.000000	26.732124 
330.500000	26.919909 
331.000000	26.942411 
331.500000	27.002176 
332.000000	27.170181 
332.500000	27.467123 
333.000000	27.610867 
333.500000	27.929088 
334.000000	28.652405 
334.500000	29.411787 
335.000000	30.345664 
335.500000	31.612426 
336.000000	33.522647 
336.500000	36.158914 
337.000000	39.467417 
337.500000	43.103730 
338.000000	47.250227 
338.500000	52.041953 
339.000000	57.105755 
339.500000	62.008083 
340.000000	66.730523 
340.500000	70.893776 
341.000000	74.316249 
341.500000	76.668812 
342.000000	77.929267 
342.500000	78.306409 
343.000000	78.031585 
343.500000	77.218480 
344.000000	75.636420 
344.500000	73.851434 
345.000000	71.456467 
345.500000	68.350299 
346.000000	64.229730 
346.500000	59.306292 
347.000000	54.077969 
347.500000	48.859294 
348.000000	43.805680 
348.500000	38.760914 
349.000000	34.542099 
349.500000	31.017495 
350.000000	27.988730 
350.500000	25.090302 
351.000000	22.130466 
351.500000	19.362442 
352.000000	16.864069 
352.500000	14.729629 
353.000000	12.673671 
353.500000	11.024876 
354.000000	9.712891  
354.500000	8.704058  
355.000000	7.924015  
355.500000	7.128742  
356.000000	6.335643  
356.500000	5.621639  
357.000000	4.988113  
357.500000	4.382292  
358.000000	3.851939  
358.500000	3.445850  
359.000000	3.042712  
359.500000	2.674732  
360.000000	2.300489  
360.500000	1.908483  
361.000000	1.604450  
361.500000	1.261993  
362.000000	0.966942  
362.500000	0.754628  
363.000000	0.680900  
363.500000	0.666997  
364.000000	0.729244  
364.500000	0.842565  
365.000000	0.961293  
365.500000	1.104006  
366.000000	1.177658  
366.500000	1.221154  
367.000000	1.206809  
367.500000	1.174491  
368.000000	1.071613  
368.500000	0.950680  
369.000000	0.893208  
369.500000	0.809604  
370.000000	0.800610  
370.500000	0.865861  
371.000000	1.047743  
371.500000	1.280218  
372.000000	1.541444  
372.500000	1.701836  
373.000000	1.771680  
373.500000	1.783584  
374.000000	1.675512  
374.500000	1.537181  
375.000000	1.382089  
375.500000	1.261041  
376.000000	1.126439  
376.500000	1.069496  
377.000000	0.971440  
377.500000	0.914171  
378.000000	0.859408  
378.500000	0.774170  
379.000000	0.723104  
379.500000	0.760328  
380.000000	0.846911  
380.500000	0.967568  
381.000000	1.073489  
381.500000	1.095064  
382.000000	1.112757  
382.500000	1.040906  
383.000000	0.885435  
383.500000	0.709296  
384.000000	0.612538  
384.500000	0.578767  
385.000000	0.663825  
385.500000	0.800759  
386.000000	0.945198  
386.500000	1.091794  
387.000000	1.180036  
387.500000	1.212514  
388.000000	1.171139  
388.500000	1.123280  
389.000000	1.043938  
389.500000	0.998947  
390.000000	0.952730  
390.500000	0.927192  
391.000000	0.929143  
391.500000	0.950183  
392.000000	0.954543  
392.500000	0.968773  
393.000000	1.005845  
393.500000	1.045528  
394.000000	1.058343  
394.500000	1.006661  
395.000000	1.040146  
395.500000	1.088029  
396.000000	1.169348  
396.500000	1.243169  
397.000000	1.300706  
397.500000	1.368956  
398.000000	1.475958  
398.500000	1.577063  
399.000000	1.582575  
399.500000	1.585536  
400.000000	1.550913  
400.500000	1.542110  
401.000000	1.531506  
401.500000	1.495168  
402.000000	1.454471  
402.500000	1.433488  
403.000000	1.426901  
403.500000	1.380326  
404.000000	1.309282  
404.500000	1.217860  
405.000000	1.138663  
405.500000	1.101607  
406.000000	1.077169  
406.500000	1.068571  
407.000000	1.059946  
407.500000	1.052752  
408.000000	1.073317  
408.500000	1.085240  
409.000000	1.049002  
409.500000	0.975787  
410.000000	0.919879  
410.500000	0.892995  
411.000000	0.894072  
411.500000	0.909584  
412.000000	0.955908  
412.500000	0.990578  
413.000000	1.029787  
413.500000	1.046790  
414.000000	1.012529  
414.500000	0.949525  
415.000000	0.896006  
415.500000	0.840249  
416.000000	0.794006  
416.500000	0.795138  
417.000000	0.802413  
417.500000	0.862105  
418.000000	0.928884  
418.500000	0.962654  
419.000000	0.954261  
419.500000	0.926240  
420.000000	0.884452  
420.500000	0.811383  
421.000000	0.760630  
421.500000	0.717435  
422.000000	0.705519  
422.500000	0.721709  
423.000000	0.743762  
423.500000	0.750265  
424.000000	0.738461  
424.500000	0.718498  
425.000000	0.701014  
425.500000	0.674639  
426.000000	0.646261  
426.500000	0.638534  
427.000000	0.650056  
427.500000	0.661214  
428.000000	0.680572  
428.500000	0.689723  
429.000000	0.682590  
429.500000	0.676517  
430.000000	0.667997  
430.500000	0.666857  
431.000000	0.669585  
431.500000	0.668620  
432.000000	0.662592  
432.500000	0.675238  
433.000000	0.694048  
433.500000	0.688980  
434.000000	0.696094  
434.500000	0.702057  
435.000000	0.714030  
435.500000	0.739628  
436.000000	0.746335  
436.500000	0.744701  
437.000000	0.749317  
437.500000	0.753574  
438.000000	0.744093  
438.500000	0.735422  
439.000000	0.716673  
439.500000	0.698709  
440.000000	0.674591  
440.500000	0.636927  
441.000000	0.595891  
441.500000	0.555069  
442.000000	0.525869  
442.500000	0.511070  
443.000000	0.515062  
443.500000	0.536214  
444.000000	0.585686  
444.500000	0.644659  

