PE FL                   SPECTRUM    ASCII       PEDS        1.60        
  -1
PM67D7~1
23/10/10
16:47:46.00
23/10/10
16:47:46.00


444.500000
1









LS55
30.00
5.00
5.00
SCAN
1
20
100
100
0
500
0
2
0
1
7
ON
500 450 
1 0 0
#HDR
-1
-1
#GR
NM

0.00002384185791015625
0.0
300.000000
0.500000
290
8
87.552566
-3.304362
#DATA
300.000000	-2.868000 
300.500000	-2.854419 
301.000000	-3.195098 
301.500000	-3.304362 
302.000000	-3.138247 
302.500000	-2.707852 
303.000000	-2.240116 
303.500000	-1.942058 
304.000000	-1.857331 
304.500000	-1.686160 
305.000000	-1.562851 
305.500000	-1.722909 
306.000000	-1.794209 
306.500000	-1.853951 
307.000000	-1.673303 
307.500000	-1.299625 
308.000000	-0.742086 
308.500000	-0.024878 
309.000000	0.879120  
309.500000	1.778151  
310.000000	2.680489  
310.500000	3.738506  
311.000000	4.908160  
311.500000	6.125590  
312.000000	7.268757  
312.500000	8.637848  
313.000000	10.057379 
313.500000	11.396001 
314.000000	12.460857 
314.500000	13.251530 
315.000000	13.905801 
315.500000	14.592807 
316.000000	15.175101 
316.500000	15.456852 
317.000000	15.690339 
317.500000	15.965218 
318.000000	16.191351 
318.500000	16.771172 
319.000000	17.227107 
319.500000	17.769325 
320.000000	18.685538 
320.500000	19.758261 
321.000000	20.759820 
321.500000	21.755017 
322.000000	22.627148 
322.500000	22.916001 
323.000000	23.161197 
323.500000	23.121509 
324.000000	22.849356 
324.500000	23.083850 
325.000000	23.629976 
325.500000	24.328973 
326.000000	25.149996 
326.500000	26.060255 
327.000000	26.828924 
327.500000	27.382693 
328.000000	27.464396 
328.500000	26.937574 
329.000000	26.586943 
329.500000	26.424089 
330.000000	26.307677 
330.500000	26.171521 
331.000000	26.187703 
331.500000	26.754574 
332.000000	27.384163 
332.500000	27.918807 
333.000000	28.296906 
333.500000	28.862586 
334.000000	29.654977 
334.500000	30.512251 
335.000000	31.529929 
335.500000	32.934656 
336.000000	35.402082 
336.500000	38.564902 
337.000000	42.364819 
337.500000	47.108423 
338.000000	52.379013 
338.500000	58.098939 
339.000000	63.753313 
339.500000	69.182870 
340.000000	74.228332 
340.500000	78.799653 
341.000000	82.423427 
341.500000	84.990441 
342.000000	86.784018 
342.500000	87.503385 
343.000000	87.552566 
343.500000	86.592168 
344.000000	84.700613 
344.500000	82.153376 
345.000000	78.965490 
345.500000	75.242864 
346.000000	71.104560 
346.500000	66.732747 
347.000000	61.885751 
347.500000	57.079336 
348.000000	52.212874 
348.500000	47.259899 
349.000000	42.540946 
349.500000	37.893689 
350.000000	33.551200 
350.500000	29.555362 
351.000000	25.775233 
351.500000	22.178715 
352.000000	19.109550 
352.500000	16.534968 
353.000000	14.296164 
353.500000	12.445208 
354.000000	10.826970 
354.500000	9.577553  
355.000000	8.561910  
355.500000	7.623288  
356.000000	6.784855  
356.500000	6.074260  
357.000000	5.419250  
357.500000	4.711112  
358.000000	4.103945  
358.500000	3.572073  
359.000000	3.235256  
359.500000	3.038518  
360.000000	2.780424  
360.500000	2.559925  
361.000000	2.358141  
361.500000	2.186927  
362.000000	1.939733  
362.500000	1.684391  
363.000000	1.491242  
363.500000	1.464704  
364.000000	1.590009  
364.500000	1.633135  
365.000000	1.751276  
365.500000	1.901060  
366.000000	2.052800  
366.500000	2.120081  
367.000000	2.124855  
367.500000	2.101352  
368.000000	2.086522  
368.500000	2.112111  
369.000000	2.002602  
369.500000	1.944748  
370.000000	1.819178  
370.500000	1.635899  
371.000000	1.392425  
371.500000	1.137030  
372.000000	0.864291  
372.500000	0.659490  
373.000000	0.507420  
373.500000	0.343597  
374.000000	0.284076  
374.500000	0.231858  
375.000000	0.276636  
375.500000	0.347304  
376.000000	0.433750  
376.500000	0.498208  
377.000000	0.610189  
377.500000	0.741872  
378.000000	0.839239  
378.500000	0.922185  
379.000000	0.929638  
379.500000	0.983238  
380.000000	1.088195  
380.500000	1.157557  
381.000000	1.150602  
381.500000	1.160596  
382.000000	1.220678  
382.500000	1.292295  
383.000000	1.374685  
383.500000	1.418329  
384.000000	1.437632  
384.500000	1.452492  
385.000000	1.451022  
385.500000	1.335383  
386.000000	1.172924  
386.500000	1.010932  
387.000000	0.878815  
387.500000	0.775496  
388.000000	0.751498  
388.500000	0.775148  
389.000000	0.834043  
389.500000	0.936810  
390.000000	0.998484  
390.500000	1.060536  
391.000000	1.090071  
391.500000	1.102885  
392.000000	1.080831  
392.500000	1.064085  
393.000000	1.034795  
393.500000	1.023432  
394.000000	1.036768  
394.500000	1.034920  
395.000000	1.076535  
395.500000	1.085672  
396.000000	1.104808  
396.500000	1.133577  
397.000000	1.146190  
397.500000	1.116964  
398.000000	1.081537  
398.500000	1.024375  
399.000000	0.956550  
399.500000	0.901176  
400.000000	0.855829  
400.500000	0.793426  
401.000000	0.774058  
401.500000	0.792571  
402.000000	0.863982  
402.500000	0.942073  
403.000000	1.011079  
403.500000	1.106412  
404.000000	1.172226  
404.500000	1.258630  
405.000000	1.276554  
405.500000	1.253148  
406.000000	1.219879  
406.500000	1.219401  
407.000000	1.172225  
407.500000	1.119745  
408.000000	1.103493  
408.500000	1.064961  
409.000000	1.076608  
409.500000	1.076173  
410.000000	1.052308  
410.500000	1.045570  
411.000000	1.072879  
411.500000	1.007538  
412.000000	0.925505  
412.500000	0.868362  
413.000000	0.795658  
413.500000	0.779021  
414.000000	0.779192  
414.500000	0.799530  
415.000000	0.874382  
415.500000	0.989611  
416.000000	1.029771  
416.500000	1.064956  
417.000000	1.074797  
417.500000	1.049923  
418.000000	1.021109  
418.500000	0.953469  
419.000000	0.882711  
419.500000	0.849887  
420.000000	0.836825  
420.500000	0.779115  
421.000000	0.736681  
421.500000	0.710746  
422.000000	0.720336  
422.500000	0.732086  
423.000000	0.725556  
423.500000	0.715224  
424.000000	0.721172  
424.500000	0.728723  
425.000000	0.717466  
425.500000	0.703598  
426.000000	0.670462  
426.500000	0.691184  
427.000000	0.708390  
427.500000	0.739723  
428.000000	0.756030  
428.500000	0.771843  
429.000000	0.807899  
429.500000	0.867096  
430.000000	0.916485  
430.500000	0.936387  
431.000000	0.978322  
431.500000	0.991026  
432.000000	0.999807  
432.500000	0.987089  
433.000000	0.964774  
433.500000	0.935021  
434.000000	0.914117  
434.500000	0.901127  
435.000000	0.871200  
435.500000	0.849666  
436.000000	0.820362  
436.500000	0.776772  
437.000000	0.724220  
437.500000	0.686973  
438.000000	0.668831  
438.500000	0.667659  
439.000000	0.686809  
439.500000	0.718751  
440.000000	0.776417  
440.500000	0.833788  
441.000000	0.850966  
441.500000	0.849072  
442.000000	0.852381  
442.500000	0.843205  
443.000000	0.820725  
443.500000	0.798588  
444.000000	0.800377  
444.500000	0.823702  

