PE FL                   SPECTRUM    ASCII       PEDS        1.60        
  -1
PM27D7~1
23/10/10
16:45:29.00
23/10/10
16:45:29.00


444.500000
1









LS55
10.00
5.00
5.00
SCAN
1
20
100
100
0
500
0
2
0
1
7
ON
500 450 
1 0 0
#HDR
-1
-1
#GR
NM

0.00002384185791015625
0.0
300.000000
0.500000
290
8
94.909997
-5.000000
#DATA
300.000000	-5.000000 
300.500000	-4.026531 
301.000000	-3.091336 
301.500000	-2.474982 
302.000000	-1.937712 
302.500000	-1.502634 
303.000000	-1.171052 
303.500000	-1.196724 
304.000000	-1.204631 
304.500000	-1.129928 
305.000000	-1.221646 
305.500000	-1.245600 
306.000000	-1.503273 
306.500000	-1.928780 
307.000000	-2.334977 
307.500000	-2.767587 
308.000000	-3.121814 
308.500000	-3.261112 
309.000000	-3.049277 
309.500000	-2.771835 
310.000000	-2.265513 
310.500000	-1.666373 
311.000000	-1.076815 
311.500000	-0.556506 
312.000000	-0.469066 
312.500000	-0.666890 
313.000000	-0.930715 
313.500000	-1.263032 
314.000000	-1.580617 
314.500000	-1.801527 
315.000000	-1.964412 
315.500000	-1.995710 
316.000000	-1.766800 
316.500000	-1.639141 
317.000000	-1.495844 
317.500000	-1.150751 
318.000000	-0.782640 
318.500000	-0.447137 
319.000000	-0.041343 
319.500000	0.199506  
320.000000	0.330423  
320.500000	0.423564  
321.000000	0.335171  
321.500000	0.124705  
322.000000	0.004896  
322.500000	-0.125765 
323.000000	-0.273509 
323.500000	-0.264066 
324.000000	-0.269778 
324.500000	-0.408896 
325.000000	-0.439918 
325.500000	-0.480533 
326.000000	-0.465824 
326.500000	-0.285877 
327.000000	0.040805  
327.500000	0.616290  
328.000000	1.353603  
328.500000	2.182133  
329.000000	2.788350  
329.500000	3.280254  
330.000000	3.729581  
330.500000	4.127085  
331.000000	4.591894  
331.500000	5.037878  
332.000000	5.648296  
332.500000	6.339276  
333.000000	7.253132  
333.500000	8.254080  
334.000000	9.392549  
334.500000	10.692721 
335.000000	12.115709 
335.500000	14.091613 
336.000000	16.690788 
336.500000	20.139592 
337.000000	24.214808 
337.500000	28.898805 
338.000000	34.462152 
338.500000	40.897076 
339.000000	47.594143 
339.500000	54.255889 
340.000000	60.962248 
340.500000	67.763468 
341.000000	74.305705 
341.500000	80.107859 
342.000000	84.954261 
342.500000	88.871318 
343.000000	92.137053 
343.500000	94.223307 
344.000000	94.909997 
344.500000	94.221141 
345.000000	92.356504 
345.500000	89.391820 
346.000000	85.425171 
346.500000	80.801977 
347.000000	75.633285 
347.500000	70.385410 
348.000000	65.054339 
348.500000	59.776773 
349.000000	54.692007 
349.500000	49.993574 
350.000000	45.286698 
350.500000	40.696408 
351.000000	36.568239 
351.500000	32.825848 
352.000000	29.446099 
352.500000	26.420178 
353.000000	23.575850 
353.500000	21.062711 
354.000000	18.948783 
354.500000	16.888272 
355.000000	14.821146 
355.500000	12.842327 
356.000000	11.071590 
356.500000	9.590485  
357.000000	8.439148  
357.500000	7.381942  
358.000000	6.438723  
358.500000	5.809605  
359.000000	5.414247  
359.500000	5.021608  
360.000000	4.698302  
360.500000	4.399090  
361.000000	4.178845  
361.500000	4.015813  
362.000000	3.946087  
362.500000	3.876713  
363.000000	3.721351  
363.500000	3.603378  
364.000000	3.386976  
364.500000	3.201539  
365.000000	3.037497  
365.500000	2.920660  
366.000000	2.770406  
366.500000	2.762343  
367.000000	2.831774  
367.500000	2.866894  
368.000000	2.867508  
368.500000	2.829592  
369.000000	2.808139  
369.500000	2.830569  
370.000000	2.859814  
370.500000	2.845845  
371.000000	2.924167  
371.500000	3.103416  
372.000000	3.227119  
372.500000	3.224391  
373.000000	3.241597  
373.500000	3.229434  
374.000000	3.234327  
374.500000	3.171171  
375.000000	3.068801  
375.500000	2.994549  
376.000000	2.985048  
376.500000	2.978545  
377.000000	2.921284  
377.500000	2.827480  
378.000000	2.764823  
378.500000	2.755302  
379.000000	2.706002  
379.500000	2.570682  
380.000000	2.379516  
380.500000	2.242535  
381.000000	2.129707  
381.500000	2.107431  
382.000000	2.106187  
382.500000	2.207019  
383.000000	2.361392  
383.500000	2.507856  
384.000000	2.594542  
384.500000	2.583850  
385.000000	2.487229  
385.500000	2.339069  
386.000000	2.239136  
386.500000	2.113336  
387.000000	2.019611  
387.500000	2.012358  
388.000000	2.078967  
388.500000	2.173406  
389.000000	2.261200  
389.500000	2.324158  
390.000000	2.346225  
390.500000	2.350566  
391.000000	2.349164  
391.500000	2.297340  
392.000000	2.261573  
392.500000	2.226522  
393.000000	2.171336  
393.500000	2.113828  
394.000000	2.038901  
394.500000	1.978474  
395.000000	1.943806  
395.500000	1.938772  
396.000000	1.896786  
396.500000	1.854874  
397.000000	1.835724  
397.500000	1.811528  
398.000000	1.792116  
398.500000	1.772729  
399.000000	1.791189  
399.500000	1.884258  
400.000000	1.984602  
400.500000	2.077788  
401.000000	2.173032  
401.500000	2.280602  
402.000000	2.350852  
402.500000	2.410171  
403.000000	2.391585  
403.500000	2.331394  
404.000000	2.306085  
404.500000	2.263423  
405.000000	2.207783  
405.500000	2.158417  
406.000000	2.165787  
406.500000	2.182271  
407.000000	2.282271  
407.500000	2.406951  
408.000000	2.516860  
408.500000	2.641269  
409.000000	2.688139  
409.500000	2.643221  
410.000000	2.562783  
410.500000	2.470250  
411.000000	2.345492  
411.500000	2.267634  
412.000000	2.231582  
412.500000	2.253828  
413.000000	2.303630  
413.500000	2.329176  
414.000000	2.280247  
414.500000	2.213286  
415.000000	2.143316  
415.500000	2.058174  
416.000000	1.995304  
416.500000	1.957155  
417.000000	1.968371  
417.500000	2.020604  
418.000000	2.078871  
418.500000	2.081532  
419.000000	2.056593  
419.500000	1.996298  
420.000000	1.933094  
420.500000	1.883123  
421.000000	1.839007  
421.500000	1.824694  
422.000000	1.838054  
422.500000	1.860902  
423.000000	1.854405  
423.500000	1.853180  
424.000000	1.831738  
424.500000	1.801310  
425.000000	1.783826  
425.500000	1.779620  
426.000000	1.793720  
426.500000	1.837146  
427.000000	1.876255  
427.500000	1.893452  
428.000000	1.906524  
428.500000	1.904303  
429.000000	1.868698  
429.500000	1.823820  
430.000000	1.780142  
430.500000	1.760776  
431.000000	1.756559  
431.500000	1.766374  
432.000000	1.764833  
432.500000	1.769600  
433.000000	1.784238  
433.500000	1.776891  
434.000000	1.761708  
434.500000	1.744487  
435.000000	1.742667  
435.500000	1.745857  
436.000000	1.745134  
436.500000	1.715101  
437.000000	1.686443  
437.500000	1.660662  
438.000000	1.638951  
438.500000	1.626813  
439.000000	1.613864  
439.500000	1.615882  
440.000000	1.633147  
440.500000	1.659084  
441.000000	1.666378  
441.500000	1.670999  
442.000000	1.649390  
442.500000	1.638917  
443.000000	1.649980  
443.500000	1.654741  
444.000000	1.660306  
444.500000	1.675367  

