PE FL                   SPECTRUM    ASCII       PEDS        1.60        
  -1
PM5BC7~1
23/10/09
18:54:18.00
23/10/09
18:54:18.00


594.500000
1









LS55
100.00
10.00
10.00
SCAN
1
20
100
100
0
800
0
2
0
1
7
ON
800 600 
1 0 0
#HDR
-1
-1
#GR
NM

0.00002384185791015625
0.0
300.000000
0.500000
590
8
163.867107
0.996425
#DATA
300.000000	161.319000 
300.500000	162.860039 
301.000000	163.867107 
301.500000	163.687803 
302.000000	162.331677 
302.500000	158.799451 
303.000000	154.793785 
303.500000	149.542161 
304.000000	143.830749 
304.500000	138.135198 
305.000000	132.942308 
305.500000	128.962352 
306.000000	126.136338 
306.500000	124.539817 
307.000000	123.835139 
307.500000	124.096171 
308.000000	124.721338 
308.500000	125.324541 
309.000000	125.490642 
309.500000	124.799682 
310.000000	123.728508 
310.500000	121.850717 
311.000000	118.711459 
311.500000	115.188987 
312.000000	111.499059 
312.500000	107.885231 
313.000000	104.789151 
313.500000	102.374226 
314.000000	100.238094 
314.500000	99.227095  
315.000000	98.197817  
315.500000	97.094790  
316.000000	96.459853  
316.500000	95.516996  
317.000000	94.227002  
317.500000	92.511032  
318.000000	90.754797  
318.500000	87.778444  
319.000000	85.234840  
319.500000	81.728989  
320.000000	77.503123  
320.500000	73.711116  
321.000000	70.383219  
321.500000	68.274801  
322.000000	67.142268  
322.500000	67.539123  
323.000000	68.076131  
323.500000	70.214521  
324.000000	72.458430  
324.500000	74.054944  
325.000000	75.310430  
325.500000	76.092113  
326.000000	77.491192  
326.500000	78.921565  
327.000000	81.550739  
327.500000	84.333240  
328.000000	87.868422  
328.500000	91.652492  
329.000000	95.338861  
329.500000	98.567974  
330.000000	101.442213 
330.500000	104.685421 
331.000000	107.440763 
331.500000	111.176930 
332.000000	115.780482 
332.500000	120.800609 
333.000000	125.849571 
333.500000	130.684304 
334.000000	134.538492 
334.500000	137.171608 
335.000000	138.557383 
335.500000	137.917040 
336.000000	136.270749 
336.500000	133.837807 
337.000000	130.704183 
337.500000	127.018388 
338.000000	123.134224 
338.500000	118.846909 
339.000000	114.166156 
339.500000	108.938474 
340.000000	103.169993 
340.500000	97.367703  
341.000000	91.279933  
341.500000	84.990002  
342.000000	78.525517  
342.500000	72.639220  
343.000000	67.325945  
343.500000	62.796069  
344.000000	58.676335  
344.500000	55.072847  
345.000000	52.051571  
345.500000	49.053807  
346.000000	46.046512  
346.500000	42.594029  
347.000000	39.028581  
347.500000	35.016250  
348.000000	31.405941  
348.500000	28.302813  
349.000000	25.665763  
349.500000	23.592794  
350.000000	21.998999  
350.500000	20.828771  
351.000000	19.802067  
351.500000	18.913478  
352.000000	17.493788  
352.500000	16.091962  
353.000000	14.818380  
353.500000	13.783526  
354.000000	12.982460  
354.500000	12.461950  
355.000000	12.195157  
355.500000	12.330560  
356.000000	12.681095  
356.500000	12.872248  
357.000000	13.102859  
357.500000	13.332520  
358.000000	13.402480  
358.500000	13.425262  
359.000000	13.445357  
359.500000	13.327957  
360.000000	13.128123  
360.500000	12.871445  
361.000000	12.560029  
361.500000	12.236163  
362.000000	11.947042  
362.500000	11.698798  
363.000000	11.628999  
363.500000	11.696319  
364.000000	11.762732  
364.500000	11.812597  
365.000000	11.870427  
365.500000	11.917438  
366.000000	11.949722  
366.500000	11.991804  
367.000000	11.985099  
367.500000	11.923370  
368.000000	11.830588  
368.500000	11.695830  
369.000000	11.531899  
369.500000	11.303508  
370.000000	11.100326  
370.500000	10.901218  
371.000000	10.716582  
371.500000	10.613060  
372.000000	10.441116  
372.500000	10.259911  
373.000000	10.097609  
373.500000	10.060889  
374.000000	10.031094  
374.500000	10.085280  
375.000000	10.228852  
375.500000	10.430823  
376.000000	10.631572  
376.500000	10.685349  
377.000000	10.518909  
377.500000	10.141008  
378.000000	9.709042   
378.500000	9.190511   
379.000000	8.694962   
379.500000	8.380417   
380.000000	8.269861   
380.500000	8.286840   
381.000000	8.468264   
381.500000	8.677411   
382.000000	8.916394   
382.500000	9.090283   
383.000000	9.208668   
383.500000	9.213039   
384.000000	9.145707   
384.500000	9.066464   
385.000000	8.907307   
385.500000	8.827263   
386.000000	8.720573   
386.500000	8.660266   
387.000000	8.517073   
387.500000	8.360424   
388.000000	8.165821   
388.500000	7.977045   
389.000000	7.760678   
389.500000	7.520425   
390.000000	7.361256   
390.500000	7.220614   
391.000000	7.177797   
391.500000	7.122077   
392.000000	7.107195   
392.500000	7.058671   
393.000000	6.985745   
393.500000	6.860346   
394.000000	6.713536   
394.500000	6.605234   
395.000000	6.509932   
395.500000	6.436380   
396.000000	6.329819   
396.500000	6.265526   
397.000000	6.198283   
397.500000	6.107202   
398.000000	5.990582   
398.500000	5.902830   
399.000000	5.856995   
399.500000	5.837174   
400.000000	5.862550   
400.500000	5.868906   
401.000000	5.897161   
401.500000	5.938002   
402.000000	5.955098   
402.500000	5.934540   
403.000000	5.939336   
403.500000	5.948832   
404.000000	5.943349   
404.500000	5.928654   
405.000000	5.886927   
405.500000	5.809751   
406.000000	5.711244   
406.500000	5.608736   
407.000000	5.479488   
407.500000	5.355463   
408.000000	5.226568   
408.500000	5.115945   
409.000000	4.999955   
409.500000	4.903188   
410.000000	4.824862   
410.500000	4.776434   
411.000000	4.773746   
411.500000	4.815928   
412.000000	4.883938   
412.500000	4.940783   
413.000000	4.996842   
413.500000	5.024083   
414.000000	5.028554   
414.500000	4.994698   
415.000000	4.947872   
415.500000	4.869549   
416.000000	4.774616   
416.500000	4.693643   
417.000000	4.608951   
417.500000	4.532691   
418.000000	4.435294   
418.500000	4.343931   
419.000000	4.232216   
419.500000	4.170624   
420.000000	4.112193   
420.500000	4.032966   
421.000000	3.967544   
421.500000	3.931947   
422.000000	3.920615   
422.500000	3.924207   
423.000000	3.929518   
423.500000	3.871798   
424.000000	3.826735   
424.500000	3.774920   
425.000000	3.687452   
425.500000	3.589596   
426.000000	3.501491   
426.500000	3.429848   
427.000000	3.422085   
427.500000	3.444303   
428.000000	3.435540   
428.500000	3.477148   
429.000000	3.544136   
429.500000	3.610637   
430.000000	3.660591   
430.500000	3.689377   
431.000000	3.693263   
431.500000	3.708330   
432.000000	3.691430   
432.500000	3.601690   
433.000000	3.515533   
433.500000	3.440694   
434.000000	3.364887   
434.500000	3.258037   
435.000000	3.166731   
435.500000	3.114852   
436.000000	3.113188   
436.500000	3.138346   
437.000000	3.132807   
437.500000	3.133933   
438.000000	3.183106   
438.500000	3.240637   
439.000000	3.227391   
439.500000	3.172566   
440.000000	3.104585   
440.500000	3.045534   
441.000000	2.991773   
441.500000	2.930622   
442.000000	2.886024   
442.500000	2.930517   
443.000000	3.020825   
443.500000	3.103297   
444.000000	3.212283   
444.500000	3.335041   
445.000000	3.471813   
445.500000	3.558500   
446.000000	3.597366   
446.500000	3.576968   
447.000000	3.528606   
447.500000	3.416921   
448.000000	3.246596   
448.500000	3.104941   
449.000000	3.019944   
449.500000	3.008802   
450.000000	3.003638   
450.500000	3.067237   
451.000000	3.198819   
451.500000	3.354031   
452.000000	3.489518   
452.500000	3.546553   
453.000000	3.563814   
453.500000	3.554196   
454.000000	3.521962   
454.500000	3.427921   
455.000000	3.342596   
455.500000	3.270960   
456.000000	3.206285   
456.500000	3.185309   
457.000000	3.176731   
457.500000	3.181121   
458.000000	3.193997   
458.500000	3.216325   
459.000000	3.236168   
459.500000	3.238305   
460.000000	3.201672   
460.500000	3.122079   
461.000000	3.058199   
461.500000	3.015008   
462.000000	2.991627   
462.500000	2.971586   
463.000000	2.945930   
463.500000	2.938003   
464.000000	2.943779   
464.500000	2.941317   
465.000000	2.923799   
465.500000	2.915847   
466.000000	2.919019   
466.500000	2.928194   
467.000000	2.971453   
467.500000	3.035827   
468.000000	3.083234   
468.500000	3.085085   
469.000000	3.054845   
469.500000	3.009097   
470.000000	2.959737   
470.500000	2.881143   
471.000000	2.802537   
471.500000	2.740734   
472.000000	2.755602   
472.500000	2.788999   
473.000000	2.808175   
473.500000	2.832420   
474.000000	2.891407   
474.500000	2.985431   
475.000000	3.062542   
475.500000	3.134181   
476.000000	3.135165   
476.500000	3.148168   
477.000000	3.147323   
477.500000	3.089983   
478.000000	3.004547   
478.500000	2.930141   
479.000000	2.878830   
479.500000	2.815822   
480.000000	2.780058   
480.500000	2.732919   
481.000000	2.711949   
481.500000	2.714421   
482.000000	2.689681   
482.500000	2.663131   
483.000000	2.682959   
483.500000	2.748764   
484.000000	2.831887   
484.500000	2.910350   
485.000000	2.989557   
485.500000	3.054711   
486.000000	3.088610   
486.500000	3.091221   
487.000000	3.046104   
487.500000	2.999051   
488.000000	2.950134   
488.500000	2.894550   
489.000000	2.828981   
489.500000	2.775161   
490.000000	2.729159   
490.500000	2.670724   
491.000000	2.626066   
491.500000	2.555506   
492.000000	2.505848   
492.500000	2.461207   
493.000000	2.420122   
493.500000	2.369585   
494.000000	2.356876   
494.500000	2.365905   
495.000000	2.360193   
495.500000	2.369741   
496.000000	2.377701   
496.500000	2.413734   
497.000000	2.454658   
497.500000	2.485555   
498.000000	2.501512   
498.500000	2.518364   
499.000000	2.536079   
499.500000	2.537194   
500.000000	2.518411   
500.500000	2.505183   
501.000000	2.517014   
501.500000	2.528591   
502.000000	2.541939   
502.500000	2.552365   
503.000000	2.541471   
503.500000	2.533457   
504.000000	2.488364   
504.500000	2.410993   
505.000000	2.339318   
505.500000	2.300268   
506.000000	2.294333   
506.500000	2.304502   
507.000000	2.348727   
507.500000	2.394475   
508.000000	2.454464   
508.500000	2.491448   
509.000000	2.497503   
509.500000	2.474781   
510.000000	2.437793   
510.500000	2.415917   
511.000000	2.402232   
511.500000	2.387855   
512.000000	2.373657   
512.500000	2.353755   
513.000000	2.317076   
513.500000	2.272611   
514.000000	2.212490   
514.500000	2.154947   
515.000000	2.161650   
515.500000	2.196232   
516.000000	2.246385   
516.500000	2.312821   
517.000000	2.376295   
517.500000	2.423275   
518.000000	2.444939   
518.500000	2.428914   
519.000000	2.382974   
519.500000	2.351132   
520.000000	2.315257   
520.500000	2.272531   
521.000000	2.249992   
521.500000	2.216242   
522.000000	2.177908   
522.500000	2.145515   
523.000000	2.127082   
523.500000	2.119656   
524.000000	2.147584   
524.500000	2.192277   
525.000000	2.244435   
525.500000	2.328569   
526.000000	2.367422   
526.500000	2.364781   
527.000000	2.312909   
527.500000	2.235347   
528.000000	2.163410   
528.500000	2.108514   
529.000000	2.068488   
529.500000	2.055042   
530.000000	2.102506   
530.500000	2.149327   
531.000000	2.197160   
531.500000	2.208773   
532.000000	2.175660   
532.500000	2.129815   
533.000000	2.073907   
533.500000	2.011853   
534.000000	1.954723   
534.500000	1.922235   
535.000000	1.899766   
535.500000	1.900394   
536.000000	1.903818   
536.500000	1.901091   
537.000000	1.900996   
537.500000	1.898280   
538.000000	1.890407   
538.500000	1.886901   
539.000000	1.887950   
539.500000	1.895343   
540.000000	1.907103   
540.500000	1.908838   
541.000000	1.915117   
541.500000	1.926956   
542.000000	1.931622   
542.500000	1.926075   
543.000000	1.920506   
543.500000	1.909697   
544.000000	1.901055   
544.500000	1.892229   
545.000000	1.883663   
545.500000	1.886654   
546.000000	1.900423   
546.500000	1.916377   
547.000000	1.935953   
547.500000	1.967151   
548.000000	2.005469   
548.500000	2.043154   
549.000000	2.063285   
549.500000	2.058945   
550.000000	2.025799   
550.500000	1.970850   
551.000000	1.892869   
551.500000	1.812394   
552.000000	1.743241   
552.500000	1.696432   
553.000000	1.691723   
553.500000	1.727463   
554.000000	1.783947   
554.500000	1.833291   
555.000000	1.871770   
555.500000	1.887930   
556.000000	1.899791   
556.500000	1.889866   
557.000000	1.859234   
557.500000	1.827225   
558.000000	1.800572   
558.500000	1.803035   
559.000000	1.771744   
559.500000	1.723360   
560.000000	1.655613   
560.500000	1.588851   
561.000000	1.527850   
561.500000	1.451159   
562.000000	1.380766   
562.500000	1.316137   
563.000000	1.321814   
563.500000	1.340390   
564.000000	1.369629   
564.500000	1.403938   
565.000000	1.441878   
565.500000	1.478390   
566.000000	1.493800   
566.500000	1.500256   
567.000000	1.468895   
567.500000	1.471971   
568.000000	1.482468   
568.500000	1.494355   
569.000000	1.506689   
569.500000	1.508664   
570.000000	1.502643   
570.500000	1.484267   
571.000000	1.441720   
571.500000	1.386954   
572.000000	1.341872   
572.500000	1.311097   
573.000000	1.303267   
573.500000	1.320203   
574.000000	1.331198   
574.500000	1.327315   
575.000000	1.309337   
575.500000	1.254375   
576.000000	1.183041   
576.500000	1.107681   
577.000000	1.036363   
577.500000	0.998487   
578.000000	0.996425   
578.500000	1.009565   
579.000000	1.038525   
579.500000	1.064691   
580.000000	1.074232   
580.500000	1.081731   
581.000000	1.083209   
581.500000	1.087977   
582.000000	1.102227   
582.500000	1.147142   
583.000000	1.184983   
583.500000	1.229419   
584.000000	1.235278   
584.500000	1.228375   
585.000000	1.211801   
585.500000	1.181280   
586.000000	1.148281   
586.500000	1.125492   
587.000000	1.142506   
587.500000	1.159328   
588.000000	1.197828   
588.500000	1.217058   
589.000000	1.224597   
589.500000	1.214421   
590.000000	1.202286   
590.500000	1.180834   
591.000000	1.161189   
591.500000	1.170669   
592.000000	1.173598   
592.500000	1.198027   
593.000000	1.229106   
593.500000	1.261527   
594.000000	1.271866   
594.500000	1.269414   

