PE FL                   SPECTRUM    ASCII       PEDS        1.60        
  -1
PM6BC7~1
23/10/09
18:54:54.00
23/10/09
18:54:54.00


594.500000
1









LS55
120.00
10.00
10.00
SCAN
1
20
100
100
0
800
0
2
0
1
7
ON
800 600 
1 0 0
#HDR
-1
-1
#GR
NM

0.00002384185791015625
0.0
300.000000
0.500000
590
8
85.238000
1.160575
#DATA
300.000000	85.238000 
300.500000	82.677659 
301.000000	79.460686 
301.500000	76.483277 
302.000000	73.757825 
302.500000	71.511588 
303.000000	68.712417 
303.500000	66.368431 
304.000000	63.909473 
304.500000	62.071019 
305.000000	60.176683 
305.500000	57.382784 
306.000000	54.005152 
306.500000	50.914300 
307.000000	48.409242 
307.500000	45.684673 
308.000000	43.726507 
308.500000	42.609805 
309.000000	42.330164 
309.500000	42.612988 
310.000000	42.869801 
310.500000	42.636347 
311.000000	42.179044 
311.500000	41.709707 
312.000000	41.004533 
312.500000	40.063404 
313.000000	39.422016 
313.500000	39.029832 
314.000000	39.026759 
314.500000	39.527837 
315.000000	40.098629 
315.500000	40.604128 
316.000000	40.569574 
316.500000	40.261548 
317.000000	39.641489 
317.500000	39.011791 
318.000000	37.911300 
318.500000	37.069950 
319.000000	36.326732 
319.500000	35.347560 
320.000000	34.593006 
320.500000	33.675713 
321.000000	32.854175 
321.500000	32.366933 
322.000000	31.914036 
322.500000	31.080691 
323.000000	30.792533 
323.500000	30.770922 
324.000000	30.416942 
324.500000	29.936974 
325.000000	29.649538 
325.500000	30.098105 
326.000000	31.079056 
326.500000	32.253341 
327.000000	33.698159 
327.500000	35.722595 
328.000000	38.281161 
328.500000	40.694348 
329.000000	42.665581 
329.500000	44.482918 
330.000000	46.522280 
330.500000	48.493315 
331.000000	50.175313 
331.500000	52.363514 
332.000000	54.673572 
332.500000	57.060826 
333.000000	59.296234 
333.500000	61.115906 
334.000000	62.662660 
334.500000	64.159144 
335.000000	64.965116 
335.500000	65.039306 
336.000000	65.143350 
336.500000	65.164807 
337.000000	64.686997 
337.500000	63.743135 
338.000000	62.264915 
338.500000	60.438683 
339.000000	58.693174 
339.500000	56.541014 
340.000000	54.305442 
340.500000	52.232556 
341.000000	50.522111 
341.500000	48.723741 
342.000000	47.198284 
342.500000	45.429202 
343.000000	43.444641 
343.500000	41.499465 
344.000000	39.284734 
344.500000	36.965972 
345.000000	34.709419 
345.500000	32.585203 
346.000000	30.338141 
346.500000	28.284890 
347.000000	26.219142 
347.500000	24.394659 
348.000000	22.741062 
348.500000	21.209534 
349.000000	19.998509 
349.500000	19.251683 
350.000000	18.721060 
350.500000	18.427864 
351.000000	18.044342 
351.500000	17.493941 
352.000000	17.164494 
352.500000	16.839769 
353.000000	16.622239 
353.500000	16.526971 
354.000000	16.572240 
354.500000	16.628724 
355.000000	16.832322 
355.500000	16.661008 
356.000000	16.155834 
356.500000	15.618053 
357.000000	14.988497 
357.500000	14.475938 
358.000000	14.129243 
358.500000	13.890780 
359.000000	13.844569 
359.500000	14.139482 
360.000000	14.495165 
360.500000	14.678497 
361.000000	14.930583 
361.500000	15.166840 
362.000000	15.377959 
362.500000	15.579584 
363.000000	15.602656 
363.500000	15.611432 
364.000000	15.434503 
364.500000	15.041226 
365.000000	14.443556 
365.500000	13.831242 
366.000000	13.266549 
366.500000	12.798588 
367.000000	12.448757 
367.500000	12.235590 
368.000000	12.298424 
368.500000	12.351860 
369.000000	12.268304 
369.500000	12.238723 
370.000000	12.234934 
370.500000	12.238565 
371.000000	12.295222 
371.500000	12.306324 
372.000000	12.231923 
372.500000	12.303073 
373.000000	12.255772 
373.500000	11.975956 
374.000000	11.740508 
374.500000	11.434905 
375.000000	11.004130 
375.500000	10.691726 
376.000000	10.430278 
376.500000	10.181796 
377.000000	10.100533 
377.500000	10.119151 
378.000000	10.099162 
378.500000	10.126135 
379.000000	10.174592 
379.500000	10.061328 
380.000000	9.949828  
380.500000	9.815113  
381.000000	9.591868  
381.500000	9.267247  
382.000000	8.943075  
382.500000	8.658182  
383.000000	8.370267  
383.500000	8.198377  
384.000000	8.047963  
384.500000	8.025696  
385.000000	8.080982  
385.500000	8.105901  
386.000000	8.128709  
386.500000	8.204839  
387.000000	8.350409  
387.500000	8.469907  
388.000000	8.551417  
388.500000	8.601855  
389.000000	8.596023  
389.500000	8.492971  
390.000000	8.211319  
390.500000	7.835034  
391.000000	7.398541  
391.500000	6.985579  
392.000000	6.652313  
392.500000	6.438703  
393.000000	6.389951  
393.500000	6.433337  
394.000000	6.567489  
394.500000	6.637266  
395.000000	6.708002  
395.500000	6.689581  
396.000000	6.580513  
396.500000	6.417767  
397.000000	6.277910  
397.500000	6.190531  
398.000000	6.079985  
398.500000	5.977278  
399.000000	5.916256  
399.500000	5.924724  
400.000000	5.920922  
400.500000	5.878802  
401.000000	5.782457  
401.500000	5.702816  
402.000000	5.666058  
402.500000	5.613558  
403.000000	5.532532  
403.500000	5.480846  
404.000000	5.475435  
404.500000	5.471226  
405.000000	5.442711  
405.500000	5.374667  
406.000000	5.326569  
406.500000	5.322565  
407.000000	5.330340  
407.500000	5.294288  
408.000000	5.299319  
408.500000	5.332314  
409.000000	5.355831  
409.500000	5.359722  
410.000000	5.276753  
410.500000	5.195250  
411.000000	5.145275  
411.500000	5.128717  
412.000000	5.075665  
412.500000	5.025708  
413.000000	5.010115  
413.500000	4.994128  
414.000000	4.940291  
414.500000	4.800501  
415.000000	4.671048  
415.500000	4.575089  
416.000000	4.517563  
416.500000	4.456217  
417.000000	4.414362  
417.500000	4.408215  
418.000000	4.419807  
418.500000	4.384464  
419.000000	4.312167  
419.500000	4.219810  
420.000000	4.105778  
420.500000	4.006544  
421.000000	3.904818  
421.500000	3.825203  
422.000000	3.775534  
422.500000	3.739630  
423.000000	3.655802  
423.500000	3.592296  
424.000000	3.565547  
424.500000	3.536837  
425.000000	3.509689  
425.500000	3.481757  
426.000000	3.478634  
426.500000	3.496758  
427.000000	3.483526  
427.500000	3.425806  
428.000000	3.363513  
428.500000	3.343167  
429.000000	3.322500  
429.500000	3.291068  
430.000000	3.259366  
430.500000	3.242630  
431.000000	3.237778  
431.500000	3.226267  
432.000000	3.213021  
432.500000	3.180760  
433.000000	3.158747  
433.500000	3.162615  
434.000000	3.170237  
434.500000	3.188619  
435.000000	3.234232  
435.500000	3.292324  
436.000000	3.340680  
436.500000	3.382639  
437.000000	3.401312  
437.500000	3.381402  
438.000000	3.339260  
438.500000	3.271540  
439.000000	3.180471  
439.500000	3.078213  
440.000000	2.975861  
440.500000	2.878024  
441.000000	2.831000  
441.500000	2.825676  
442.000000	2.831208  
442.500000	2.863125  
443.000000	2.944605  
443.500000	3.033697  
444.000000	3.120807  
444.500000	3.209921  
445.000000	3.249107  
445.500000	3.257575  
446.000000	3.246768  
446.500000	3.177919  
447.000000	3.066788  
447.500000	2.961848  
448.000000	2.875753  
448.500000	2.827860  
449.000000	2.831762  
449.500000	2.844351  
450.000000	2.845779  
450.500000	2.905866  
451.000000	2.961965  
451.500000	2.990956  
452.000000	3.002597  
452.500000	2.976035  
453.000000	2.931148  
453.500000	2.904198  
454.000000	2.883275  
454.500000	2.816218  
455.000000	2.776231  
455.500000	2.745357  
456.000000	2.728560  
456.500000	2.714155  
457.000000	2.682865  
457.500000	2.658040  
458.000000	2.636550  
458.500000	2.605605  
459.000000	2.556028  
459.500000	2.512311  
460.000000	2.465438  
460.500000	2.430210  
461.000000	2.404431  
461.500000	2.372862  
462.000000	2.354451  
462.500000	2.347386  
463.000000	2.307857  
463.500000	2.278148  
464.000000	2.268913  
464.500000	2.264434  
465.000000	2.258010  
465.500000	2.260443  
466.000000	2.272061  
466.500000	2.294136  
467.000000	2.334043  
467.500000	2.338024  
468.000000	2.340040  
468.500000	2.345582  
469.000000	2.362488  
469.500000	2.359778  
470.000000	2.359013  
470.500000	2.366472  
471.000000	2.358358  
471.500000	2.356615  
472.000000	2.329460  
472.500000	2.296806  
473.000000	2.261559  
473.500000	2.231843  
474.000000	2.197693  
474.500000	2.178485  
475.000000	2.158960  
475.500000	2.130307  
476.000000	2.104513  
476.500000	2.067803  
477.000000	2.028935  
477.500000	1.988417  
478.000000	1.941954  
478.500000	1.884935  
479.000000	1.858920  
479.500000	1.853586  
480.000000	1.852436  
480.500000	1.860034  
481.000000	1.874376  
481.500000	1.893237  
482.000000	1.906182  
482.500000	1.904123  
483.000000	1.864270  
483.500000	1.812018  
484.000000	1.761634  
484.500000	1.717792  
485.000000	1.680683  
485.500000	1.657983  
486.000000	1.655705  
486.500000	1.678932  
487.000000	1.730999  
487.500000	1.778615  
488.000000	1.820348  
488.500000	1.858747  
489.000000	1.887605  
489.500000	1.907083  
490.000000	1.912175  
490.500000	1.907534  
491.000000	1.899449  
491.500000	1.907110  
492.000000	1.914297  
492.500000	1.923612  
493.000000	1.927066  
493.500000	1.927407  
494.000000	1.932046  
494.500000	1.937123  
495.000000	1.932628  
495.500000	1.928184  
496.000000	1.954572  
496.500000	1.999059  
497.000000	2.044055  
497.500000	2.077175  
498.000000	2.092550  
498.500000	2.120474  
499.000000	2.117536  
499.500000	2.083459  
500.000000	2.020336  
500.500000	1.968778  
501.000000	1.950731  
501.500000	1.953513  
502.000000	1.948126  
502.500000	1.945730  
503.000000	1.968958  
503.500000	2.001003  
504.000000	2.019945  
504.500000	1.992293  
505.000000	1.945096  
505.500000	1.909809  
506.000000	1.896275  
506.500000	1.876091  
507.000000	1.856329  
507.500000	1.843702  
508.000000	1.862964  
508.500000	1.897713  
509.000000	1.911369  
509.500000	1.907705  
510.000000	1.907928  
510.500000	1.913778  
511.000000	1.916276  
511.500000	1.932466  
512.000000	1.925235  
512.500000	1.935207  
513.000000	1.951169  
513.500000	1.965391  
514.000000	1.945070  
514.500000	1.919760  
515.000000	1.883214  
515.500000	1.845141  
516.000000	1.814680  
516.500000	1.788877  
517.000000	1.790224  
517.500000	1.797196  
518.000000	1.831724  
518.500000	1.855527  
519.000000	1.894704  
519.500000	1.924386  
520.000000	1.934787  
520.500000	1.922030  
521.000000	1.880192  
521.500000	1.832428  
522.000000	1.763280  
522.500000	1.704375  
523.000000	1.648097  
523.500000	1.629806  
524.000000	1.643484  
524.500000	1.680666  
525.000000	1.722906  
525.500000	1.757525  
526.000000	1.784490  
526.500000	1.775685  
527.000000	1.740524  
527.500000	1.677699  
528.000000	1.624980  
528.500000	1.596875  
529.000000	1.603716  
529.500000	1.646041  
530.000000	1.704864  
530.500000	1.766717  
531.000000	1.813571  
531.500000	1.853615  
532.000000	1.869737  
532.500000	1.856280  
533.000000	1.829743  
533.500000	1.800963  
534.000000	1.798410  
534.500000	1.792254  
535.000000	1.782152  
535.500000	1.758475  
536.000000	1.735718  
536.500000	1.720344  
537.000000	1.697436  
537.500000	1.672113  
538.000000	1.645956  
538.500000	1.660415  
539.000000	1.682784  
539.500000	1.719764  
540.000000	1.758603  
540.500000	1.786647  
541.000000	1.819110  
541.500000	1.848828  
542.000000	1.867820  
542.500000	1.877163  
543.000000	1.885617  
543.500000	1.881952  
544.000000	1.893182  
544.500000	1.907616  
545.000000	1.901737  
545.500000	1.899098  
546.000000	1.889044  
546.500000	1.867240  
547.000000	1.839961  
547.500000	1.795138  
548.000000	1.738484  
548.500000	1.691315  
549.000000	1.656983  
549.500000	1.608881  
550.000000	1.580897  
550.500000	1.562630  
551.000000	1.562605  
551.500000	1.591974  
552.000000	1.614197  
552.500000	1.635598  
553.000000	1.671206  
553.500000	1.715615  
554.000000	1.739636  
554.500000	1.771323  
555.000000	1.792811  
555.500000	1.817291  
556.000000	1.850766  
556.500000	1.849542  
557.000000	1.821568  
557.500000	1.779622  
558.000000	1.736099  
558.500000	1.673736  
559.000000	1.619994  
559.500000	1.566449  
560.000000	1.523498  
560.500000	1.519150  
561.000000	1.524819  
561.500000	1.537327  
562.000000	1.561787  
562.500000	1.603293  
563.000000	1.647064  
563.500000	1.704928  
564.000000	1.765824  
564.500000	1.822180  
565.000000	1.867981  
565.500000	1.884951  
566.000000	1.895712  
566.500000	1.854766  
567.000000	1.793393  
567.500000	1.717124  
568.000000	1.652305  
568.500000	1.602887  
569.000000	1.582509  
569.500000	1.586605  
570.000000	1.581122  
570.500000	1.614843  
571.000000	1.634300  
571.500000	1.644196  
572.000000	1.642309  
572.500000	1.646742  
573.000000	1.645826  
573.500000	1.651570  
574.000000	1.666490  
574.500000	1.665342  
575.000000	1.688934  
575.500000	1.686408  
576.000000	1.677764  
576.500000	1.652588  
577.000000	1.621456  
577.500000	1.584572  
578.000000	1.529270  
578.500000	1.474703  
579.000000	1.427131  
579.500000	1.407966  
580.000000	1.387127  
580.500000	1.377986  
581.000000	1.371464  
581.500000	1.378437  
582.000000	1.397409  
582.500000	1.410371  
583.000000	1.424316  
583.500000	1.427751  
584.000000	1.455498  
584.500000	1.474254  
585.000000	1.482701  
585.500000	1.486058  
586.000000	1.488171  
586.500000	1.456871  
587.000000	1.427263  
587.500000	1.412949  
588.000000	1.392276  
588.500000	1.402216  
589.000000	1.438885  
589.500000	1.471429  
590.000000	1.506751  
590.500000	1.546585  
591.000000	1.510160  
591.500000	1.447722  
592.000000	1.380415  
592.500000	1.301779  
593.000000	1.236788  
593.500000	1.201989  
594.000000	1.169290  
594.500000	1.160575  

