PE FL                   SPECTRUM    ASCII       PEDS        1.60        
  -1
PM2BC7~1
23/10/09
18:52:31.00
23/10/09
18:52:31.00


594.500000
1









LS55
40.00
10.00
10.00
SCAN
1
20
100
100
0
800
0
2
0
1
7
ON
800 600 
1 0 0
#HDR
-1
-1
#GR
NM

0.00002384185791015625
0.0
300.000000
0.500000
590
8
1011.036017
2.247745
#DATA
300.000000	134.770000  
300.500000	158.381476  
301.000000	181.323896  
301.500000	202.401972  
302.000000	221.804803  
302.500000	239.313290  
303.000000	254.983677  
303.500000	268.109819  
304.000000	280.428810  
304.500000	292.645642  
305.000000	305.271687  
305.500000	317.795282  
306.000000	329.419348  
306.500000	340.896010  
307.000000	353.812113  
307.500000	367.104390  
308.000000	379.386837  
308.500000	392.145640  
309.000000	405.132899  
309.500000	418.899808  
310.000000	433.023527  
310.500000	446.310793  
311.000000	459.390681  
311.500000	474.496148  
312.000000	489.672805  
312.500000	502.601288  
313.000000	514.056440  
313.500000	524.045570  
314.000000	532.085359  
314.500000	539.729444  
315.000000	544.823123  
315.500000	548.959480  
316.000000	553.464254  
316.500000	557.802159  
317.000000	561.642317  
317.500000	565.139353  
318.000000	569.347803  
318.500000	571.579391  
319.000000	573.916044  
319.500000	574.555688  
320.000000	575.782470  
320.500000	577.841586  
321.000000	580.926466  
321.500000	586.474012  
322.000000	593.618141  
322.500000	604.024141  
323.000000	614.923699  
323.500000	628.168960  
324.000000	642.865831  
324.500000	660.359464  
325.000000	680.298635  
325.500000	704.132901  
326.000000	734.027946  
326.500000	769.004258  
327.000000	808.671372  
327.500000	849.887559  
328.000000	890.814380  
328.500000	928.891349  
329.000000	960.974005  
329.500000	983.777928  
330.000000	997.689596  
330.500000	1004.879116 
331.000000	1007.257358 
331.500000	1006.772653 
332.000000	1004.227004 
332.500000	1001.447483 
333.000000	999.999000  
333.500000	999.999000  
334.000000	999.999000  
334.500000	999.999000  
335.000000	999.999000  
335.500000	999.999000  
336.000000	999.999000  
336.500000	999.999000  
337.000000	999.999000  
337.500000	999.999000  
338.000000	999.999000  
338.500000	1000.342376 
339.000000	1002.008794 
339.500000	1005.934799 
340.000000	1010.158912 
340.500000	1011.036017 
341.000000	1008.048005 
341.500000	996.383979  
342.000000	974.531660  
342.500000	940.418534  
343.000000	894.361986  
343.500000	838.087742  
344.000000	776.032658  
344.500000	711.366499  
345.000000	644.930785  
345.500000	582.698710  
346.000000	523.368860  
346.500000	468.418412  
347.000000	417.674514  
347.500000	370.851319  
348.000000	327.489494  
348.500000	288.485621  
349.000000	253.985061  
349.500000	222.015542  
350.000000	195.308988  
350.500000	171.360035  
351.000000	150.026851  
351.500000	131.208505  
352.000000	114.937494  
352.500000	101.270328  
353.000000	89.774201   
353.500000	80.035074   
354.000000	71.761912   
354.500000	64.866962   
355.000000	58.658230   
355.500000	52.845130   
356.000000	47.885122   
356.500000	43.382592   
357.000000	39.375444   
357.500000	35.786630   
358.000000	32.798356   
358.500000	30.462317   
359.000000	28.598309   
359.500000	27.095750   
360.000000	25.931946   
360.500000	25.118159   
361.000000	24.519359   
361.500000	23.932056   
362.000000	23.202967   
362.500000	22.575170   
363.000000	21.836232   
363.500000	21.032928   
364.000000	20.366850   
364.500000	19.880845   
365.000000	19.637176   
365.500000	19.600248   
366.000000	19.564409   
366.500000	19.475296   
367.000000	19.720687   
367.500000	19.955380   
368.000000	20.129800   
368.500000	20.298082   
369.000000	20.209188   
369.500000	19.893092   
370.000000	19.624689   
370.500000	19.196473   
371.000000	18.716728   
371.500000	18.281503   
372.000000	17.959998   
372.500000	17.871787   
373.000000	18.109559   
373.500000	18.289481   
374.000000	18.235481   
374.500000	18.097479   
375.000000	17.645158   
375.500000	17.005239   
376.000000	16.186428   
376.500000	15.306517   
377.000000	14.551159   
377.500000	14.190774   
378.000000	14.069982   
378.500000	14.031681   
379.000000	14.317567   
379.500000	14.651660   
380.000000	15.152212   
380.500000	15.547211   
381.000000	15.751972   
381.500000	15.717417   
382.000000	15.523972   
382.500000	15.134871   
383.000000	14.416397   
383.500000	13.760562   
384.000000	13.176537   
384.500000	12.903096   
385.000000	12.749754   
385.500000	12.698935   
386.000000	12.758860   
386.500000	12.831448   
387.000000	13.055557   
387.500000	13.151257   
388.000000	13.273247   
388.500000	13.286367   
389.000000	13.249334   
389.500000	13.081121   
390.000000	12.976274   
390.500000	12.773376   
391.000000	12.448384   
391.500000	12.093584   
392.000000	11.618278   
392.500000	11.227484   
393.000000	10.780939   
393.500000	10.355252   
394.000000	9.947659    
394.500000	9.682786    
395.000000	9.609365    
395.500000	9.654795    
396.000000	9.787496    
396.500000	9.952592    
397.000000	10.243331   
397.500000	10.509314   
398.000000	10.723063   
398.500000	10.823102   
399.000000	10.858930   
399.500000	10.781286   
400.000000	10.682465   
400.500000	10.490284   
401.000000	10.167959   
401.500000	9.876174    
402.000000	9.493088    
402.500000	9.251854    
403.000000	9.264120    
403.500000	9.374891    
404.000000	9.490973    
404.500000	9.689739    
405.000000	9.877373    
405.500000	9.943542    
406.000000	9.913547    
406.500000	9.708309    
407.000000	9.481493    
407.500000	9.311723    
408.000000	9.217209    
408.500000	9.103047    
409.000000	9.023029    
409.500000	9.039951    
410.000000	9.057789    
410.500000	9.041509    
411.000000	8.983722    
411.500000	8.921897    
412.000000	8.958298    
412.500000	9.027473    
413.000000	9.086780    
413.500000	9.100426    
414.000000	9.084223    
414.500000	9.003922    
415.000000	8.801961    
415.500000	8.612200    
416.000000	8.469656    
416.500000	8.395432    
417.000000	8.321068    
417.500000	8.319190    
418.000000	8.432224    
418.500000	8.484401    
419.000000	8.487753    
419.500000	8.368713    
420.000000	8.206468    
420.500000	8.041224    
421.000000	7.898333    
421.500000	7.778875    
422.000000	7.648601    
422.500000	7.728793    
423.000000	7.815283    
423.500000	7.944160    
424.000000	8.041697    
424.500000	8.071923    
425.000000	8.072897    
425.500000	8.065800    
426.000000	8.071868    
426.500000	7.949756    
427.000000	7.928069    
427.500000	7.931199    
428.000000	7.970368    
428.500000	8.004618    
429.000000	8.004563    
429.500000	7.955491    
430.000000	7.891903    
430.500000	7.898642    
431.000000	7.788164    
431.500000	7.692635    
432.000000	7.622039    
432.500000	7.555084    
433.000000	7.495174    
433.500000	7.432695    
434.000000	7.318632    
434.500000	7.212734    
435.000000	7.208661    
435.500000	7.192444    
436.000000	7.235057    
436.500000	7.301233    
437.000000	7.392269    
437.500000	7.462022    
438.000000	7.504488    
438.500000	7.453832    
439.000000	7.381859    
439.500000	7.322689    
440.000000	7.279154    
440.500000	7.291341    
441.000000	7.321195    
441.500000	7.420380    
442.000000	7.513432    
442.500000	7.624378    
443.000000	7.688525    
443.500000	7.750874    
444.000000	7.754201    
444.500000	7.738373    
445.000000	7.731167    
445.500000	7.725537    
446.000000	7.757648    
446.500000	7.789642    
447.000000	7.825995    
447.500000	7.844300    
448.000000	7.852709    
448.500000	7.801812    
449.000000	7.731428    
449.500000	7.664224    
450.000000	7.630631    
450.500000	7.603122    
451.000000	7.608579    
451.500000	7.630732    
452.000000	7.688701    
452.500000	7.734343    
453.000000	7.759166    
453.500000	7.727789    
454.000000	7.653961    
454.500000	7.606699    
455.000000	7.537025    
455.500000	7.490094    
456.000000	7.425411    
456.500000	7.374044    
457.000000	7.320574    
457.500000	7.288840    
458.000000	7.234556    
458.500000	7.137176    
459.000000	7.054674    
459.500000	7.008998    
460.000000	6.986324    
460.500000	6.973790    
461.000000	6.962985    
461.500000	6.941858    
462.000000	6.949592    
462.500000	6.956185    
463.000000	6.922358    
463.500000	6.863047    
464.000000	6.791939    
464.500000	6.720020    
465.000000	6.668115    
465.500000	6.622333    
466.000000	6.578403    
466.500000	6.566530    
467.000000	6.586006    
467.500000	6.623317    
468.000000	6.674949    
468.500000	6.708212    
469.000000	6.710832    
469.500000	6.709039    
470.000000	6.680992    
470.500000	6.647576    
471.000000	6.595819    
471.500000	6.541778    
472.000000	6.484464    
472.500000	6.461476    
473.000000	6.461847    
473.500000	6.477386    
474.000000	6.516117    
474.500000	6.531877    
475.000000	6.583872    
475.500000	6.619069    
476.000000	6.622887    
476.500000	6.582356    
477.000000	6.508428    
477.500000	6.414062    
478.000000	6.306824    
478.500000	6.201690    
479.000000	6.072373    
479.500000	6.008375    
480.000000	5.971797    
480.500000	5.962803    
481.000000	5.971146    
481.500000	5.988083    
482.000000	6.012035    
482.500000	6.046908    
483.000000	6.074210    
483.500000	6.066244    
484.000000	6.056849    
484.500000	6.031583    
485.000000	5.986085    
485.500000	5.914666    
486.000000	5.852903    
486.500000	5.786196    
487.000000	5.741244    
487.500000	5.726837    
488.000000	5.747205    
488.500000	5.795794    
489.000000	5.861272    
489.500000	5.948894    
490.000000	6.025328    
490.500000	6.142339    
491.000000	6.248260    
491.500000	6.345306    
492.000000	6.431343    
492.500000	6.497968    
493.000000	6.519846    
493.500000	6.526559    
494.000000	6.506497    
494.500000	6.460853    
495.000000	6.417341    
495.500000	6.390310    
496.000000	6.357067    
496.500000	6.314406    
497.000000	6.261848    
497.500000	6.149686    
498.000000	6.076287    
498.500000	6.015382    
499.000000	5.978681    
499.500000	5.945634    
500.000000	5.961403    
500.500000	6.018589    
501.000000	6.104988    
501.500000	6.217160    
502.000000	6.223259    
502.500000	6.203974    
503.000000	6.166107    
503.500000	6.094793    
504.000000	5.985152    
504.500000	5.891162    
505.000000	5.810035    
505.500000	5.736172    
506.000000	5.697412    
506.500000	5.614363    
507.000000	5.574276    
507.500000	5.586591    
508.000000	5.609465    
508.500000	5.648041    
509.000000	5.718485    
509.500000	5.808822    
510.000000	5.858206    
510.500000	5.878155    
511.000000	5.784624    
511.500000	5.686472    
512.000000	5.559995    
512.500000	5.412056    
513.000000	5.287632    
513.500000	5.233635    
514.000000	5.274233    
514.500000	5.352097    
515.000000	5.500446    
515.500000	5.588877    
516.000000	5.720698    
516.500000	5.799385    
517.000000	5.842253    
517.500000	5.839869    
518.000000	5.788462    
518.500000	5.747760    
519.000000	5.690193    
519.500000	5.660063    
520.000000	5.591123    
520.500000	5.575898    
521.000000	5.565222    
521.500000	5.571632    
522.000000	5.584001    
522.500000	5.534336    
523.000000	5.474232    
523.500000	5.439833    
524.000000	5.437254    
524.500000	5.410348    
525.000000	5.391863    
525.500000	5.392134    
526.000000	5.429241    
526.500000	5.508826    
527.000000	5.506504    
527.500000	5.424819    
528.000000	5.339262    
528.500000	5.286376    
529.000000	5.271285    
529.500000	5.248541    
530.000000	5.237581    
530.500000	5.237391    
531.000000	5.310391    
531.500000	5.381895    
532.000000	5.399189    
532.500000	5.378238    
533.000000	5.338330    
533.500000	5.341246    
534.000000	5.317655    
534.500000	5.299783    
535.000000	5.273030    
535.500000	5.271701    
536.000000	5.288348    
536.500000	5.296943    
537.000000	5.324031    
537.500000	5.327145    
538.000000	5.374031    
538.500000	5.417593    
539.000000	5.457550    
539.500000	5.483628    
540.000000	5.461459    
540.500000	5.378970    
541.000000	5.235232    
541.500000	5.114811    
542.000000	4.936480    
542.500000	4.789631    
543.000000	4.677008    
543.500000	4.630945    
544.000000	4.665223    
544.500000	4.740656    
545.000000	4.819536    
545.500000	4.850374    
546.000000	4.930932    
546.500000	4.945657    
547.000000	4.922031    
547.500000	4.873955    
548.000000	4.842991    
548.500000	4.845367    
549.000000	4.878730    
549.500000	4.929264    
550.000000	4.957377    
550.500000	5.010083    
551.000000	5.006356    
551.500000	4.954846    
552.000000	4.838302    
552.500000	4.682000    
553.000000	4.502794    
553.500000	4.322061    
554.000000	4.188137    
554.500000	4.122830    
555.000000	4.116666    
555.500000	4.115074    
556.000000	4.101922    
556.500000	4.058863    
557.000000	3.990703    
557.500000	3.902198    
558.000000	3.788457    
558.500000	3.690358    
559.000000	3.628377    
559.500000	3.625824    
560.000000	3.655317    
560.500000	3.704040    
561.000000	3.734891    
561.500000	3.767660    
562.000000	3.765785    
562.500000	3.766799    
563.000000	3.769670    
563.500000	3.730993    
564.000000	3.670193    
564.500000	3.608500    
565.000000	3.563266    
565.500000	3.492148    
566.000000	3.439747    
566.500000	3.341480    
567.000000	3.312586    
567.500000	3.347154    
568.000000	3.408600    
568.500000	3.446192    
569.000000	3.443606    
569.500000	3.403086    
570.000000	3.352003    
570.500000	3.318830    
571.000000	3.222306    
571.500000	3.165286    
572.000000	3.128261    
572.500000	3.129976    
573.000000	3.116975    
573.500000	3.100096    
574.000000	3.056657    
574.500000	3.025315    
575.000000	3.026459    
575.500000	3.003530    
576.000000	3.001950    
576.500000	3.009512    
577.000000	3.044013    
577.500000	3.039126    
578.000000	3.012220    
578.500000	2.965682    
579.000000	2.902234    
579.500000	2.845347    
580.000000	2.778686    
580.500000	2.734899    
581.000000	2.696306    
581.500000	2.672849    
582.000000	2.620331    
582.500000	2.522324    
583.000000	2.433552    
583.500000	2.333411    
584.000000	2.272259    
584.500000	2.247745    
585.000000	2.255417    
585.500000	2.293671    
586.000000	2.362808    
586.500000	2.464492    
587.000000	2.539834    
587.500000	2.602822    
588.000000	2.626532    
588.500000	2.647040    
589.000000	2.677725    
589.500000	2.684904    
590.000000	2.688373    
590.500000	2.682935    
591.000000	2.689069    
591.500000	2.713767    
592.000000	2.726433    
592.500000	2.705257    
593.000000	2.696204    
593.500000	2.710915    
594.000000	2.714891    
594.500000	2.719345    

