PE FL                   SPECTRUM    ASCII       PEDS        1.60        
  -1
PM3BC7~1
23/10/09
18:53:07.00
23/10/09
18:53:07.00


594.500000
1









LS55
60.00
10.00
10.00
SCAN
1
20
100
100
0
800
0
2
0
1
7
ON
800 600 
1 0 0
#HDR
-1
-1
#GR
NM

0.00002384185791015625
0.0
300.000000
0.500000
590
8
831.846268
1.777908
#DATA
300.000000	509.067000 
300.500000	517.863651 
301.000000	523.306132 
301.500000	526.680962 
302.000000	530.399484 
302.500000	532.837464 
303.000000	532.566895 
303.500000	527.544255 
304.000000	519.046949 
304.500000	511.253023 
305.000000	504.881554 
305.500000	498.372023 
306.000000	493.012310 
306.500000	489.442830 
307.000000	486.733602 
307.500000	485.078582 
308.000000	483.736261 
308.500000	481.079347 
309.000000	479.422524 
309.500000	479.315115 
310.000000	480.567150 
310.500000	482.800608 
311.000000	483.485797 
311.500000	481.896999 
312.000000	478.883732 
312.500000	473.936093 
313.000000	466.667159 
313.500000	458.501118 
314.000000	449.932699 
314.500000	442.706271 
315.000000	437.731587 
315.500000	433.821733 
316.000000	431.511747 
316.500000	429.812332 
317.000000	427.500156 
317.500000	424.196696 
318.000000	419.926609 
318.500000	413.340887 
319.000000	405.695108 
319.500000	398.214983 
320.000000	391.158216 
320.500000	385.115279 
321.000000	379.608299 
321.500000	374.754536 
322.000000	372.026046 
322.500000	371.999381 
323.000000	374.169804 
323.500000	377.708287 
324.000000	383.004344 
324.500000	389.888436 
325.000000	398.420327 
325.500000	407.476442 
326.000000	416.852388 
326.500000	429.242310 
327.000000	444.982855 
327.500000	464.095970 
328.000000	486.644515 
328.500000	512.902184 
329.000000	542.887373 
329.500000	573.809348 
330.000000	604.776069 
330.500000	633.422957 
331.000000	662.845528 
331.500000	692.962397 
332.000000	721.997385 
332.500000	749.358479 
333.000000	774.313349 
333.500000	797.303856 
334.000000	815.776028 
334.500000	827.992885 
335.000000	831.846268 
335.500000	829.373658 
336.000000	822.164816 
336.500000	809.880538 
337.000000	792.906356 
337.500000	772.208335 
338.000000	750.071742 
338.500000	726.858303 
339.000000	701.481555 
339.500000	673.560524 
340.000000	644.767604 
340.500000	613.927532 
341.000000	580.269975 
341.500000	544.049534 
342.000000	505.624750 
342.500000	465.863196 
343.000000	426.744509 
343.500000	387.712925 
344.000000	349.884186 
344.500000	316.494020 
345.000000	286.249422 
345.500000	258.499314 
346.000000	232.936746 
346.500000	208.946030 
347.000000	187.012807 
347.500000	167.326739 
348.000000	149.361527 
348.500000	131.911506 
349.000000	116.881731 
349.500000	103.313566 
350.000000	91.140673  
350.500000	80.176167  
351.000000	70.096709  
351.500000	61.060621  
352.000000	53.163672  
352.500000	46.528143  
353.000000	41.025513  
353.500000	36.474855  
354.000000	32.577178  
354.500000	29.308055  
355.000000	26.498407  
355.500000	23.900451  
356.000000	21.650315  
356.500000	19.444368  
357.000000	17.546747  
357.500000	15.987249  
358.000000	14.852194  
358.500000	13.955551  
359.000000	13.351683  
359.500000	13.008120  
360.000000	12.954345  
360.500000	13.124620  
361.000000	13.203995  
361.500000	13.224452  
362.000000	13.167093  
362.500000	13.000861  
363.000000	12.885371  
363.500000	12.854500  
364.000000	12.817034  
364.500000	12.663464  
365.000000	12.511754  
365.500000	12.363886  
366.000000	12.213574  
366.500000	12.077318  
367.000000	11.851174  
367.500000	11.570530  
368.000000	11.484519  
368.500000	11.541327  
369.000000	11.589719  
369.500000	11.639160  
370.000000	11.601382  
370.500000	11.633348  
371.000000	11.787453  
371.500000	11.770656  
372.000000	11.582539  
372.500000	11.413862  
373.000000	11.312880  
373.500000	11.175569  
374.000000	11.175331  
374.500000	11.038173  
375.000000	11.108570  
375.500000	11.535276  
376.000000	11.975684  
376.500000	12.447986  
377.000000	12.905517  
377.500000	13.286814  
378.000000	13.378566  
378.500000	13.446759  
379.000000	13.254088  
379.500000	12.959531  
380.000000	12.836201  
380.500000	12.718004  
381.000000	12.680852  
381.500000	12.705673  
382.000000	12.727059  
382.500000	12.698129  
383.000000	12.691671  
383.500000	12.597860  
384.000000	12.383588  
384.500000	12.280851  
385.000000	12.242273  
385.500000	12.232338  
386.000000	12.130738  
386.500000	11.904155  
387.000000	11.796731  
387.500000	11.808872  
388.000000	11.931114  
388.500000	12.062601  
389.000000	12.324559  
389.500000	12.819726  
390.000000	13.377076  
390.500000	13.706296  
391.000000	13.758318  
391.500000	13.735269  
392.000000	13.721201  
392.500000	13.627118  
393.000000	13.508094  
393.500000	13.428794  
394.000000	13.420868  
394.500000	13.538764  
395.000000	13.510580  
395.500000	13.409271  
396.000000	13.212374  
396.500000	12.999940  
397.000000	12.700401  
397.500000	12.331480  
398.000000	12.104304  
398.500000	11.924563  
399.000000	11.896587  
399.500000	11.958189  
400.000000	12.092863  
400.500000	12.251153  
401.000000	12.490860  
401.500000	12.678789  
402.000000	12.681632  
402.500000	12.725851  
403.000000	12.628427  
403.500000	12.511610  
404.000000	12.503004  
404.500000	12.543111  
405.000000	12.603928  
405.500000	12.821780  
406.000000	13.152605  
406.500000	13.309332  
407.000000	13.491255  
407.500000	13.478058  
408.000000	13.257063  
408.500000	13.017401  
409.000000	12.775487  
409.500000	12.465923  
410.000000	12.290058  
410.500000	12.363247  
411.000000	12.507797  
411.500000	12.822337  
412.000000	13.181077  
412.500000	13.394493  
413.000000	13.464850  
413.500000	13.455698  
414.000000	13.223487  
414.500000	12.911637  
415.000000	12.693658  
415.500000	12.541214  
416.000000	12.565474  
416.500000	12.798959  
417.000000	13.098806  
417.500000	13.378111  
418.000000	13.659942  
418.500000	13.775914  
419.000000	13.692716  
419.500000	13.483971  
420.000000	13.235457  
420.500000	12.977284  
421.000000	12.748156  
421.500000	12.550138  
422.000000	12.415761  
422.500000	12.371521  
423.000000	12.362527  
423.500000	12.319266  
424.000000	12.289213  
424.500000	12.228536  
425.000000	12.180613  
425.500000	12.055682  
426.000000	11.857063  
426.500000	11.633966  
427.000000	11.467543  
427.500000	11.327077  
428.000000	11.141286  
428.500000	11.005625  
429.000000	10.905882  
429.500000	10.845623  
430.000000	10.717810  
430.500000	10.503868  
431.000000	10.270486  
431.500000	10.103499  
432.000000	9.982501   
432.500000	9.873049   
433.000000	9.840320   
433.500000	9.901461   
434.000000	9.991015   
434.500000	10.060652  
435.000000	9.994469   
435.500000	9.823074   
436.000000	9.584976   
436.500000	9.312430   
437.000000	8.986311   
437.500000	8.676902   
438.000000	8.493956   
438.500000	8.423253   
439.000000	8.487373   
439.500000	8.533814   
440.000000	8.582498   
440.500000	8.595257   
441.000000	8.576591   
441.500000	8.469117   
442.000000	8.275771   
442.500000	8.081812   
443.000000	7.859112   
443.500000	7.697397   
444.000000	7.544028   
444.500000	7.416699   
445.000000	7.291334   
445.500000	7.179090   
446.000000	7.054411   
446.500000	6.910649   
447.000000	6.761750   
447.500000	6.585468   
448.000000	6.428468   
448.500000	6.256829   
449.000000	6.082348   
449.500000	5.923790   
450.000000	5.771147   
450.500000	5.661252   
451.000000	5.618992   
451.500000	5.615053   
452.000000	5.625470   
452.500000	5.636461   
453.000000	5.615230   
453.500000	5.544030   
454.000000	5.406365   
454.500000	5.207231   
455.000000	5.027842   
455.500000	4.912974   
456.000000	4.804144   
456.500000	4.758965   
457.000000	4.785123   
457.500000	4.863484   
458.000000	4.915707   
458.500000	4.909612   
459.000000	4.826512   
459.500000	4.703669   
460.000000	4.582565   
460.500000	4.458482   
461.000000	4.351303   
461.500000	4.284373   
462.000000	4.287914   
462.500000	4.334249   
463.000000	4.382973   
463.500000	4.411929   
464.000000	4.419206   
464.500000	4.401737   
465.000000	4.373059   
465.500000	4.312088   
466.000000	4.256301   
466.500000	4.209681   
467.000000	4.187294   
467.500000	4.184029   
468.000000	4.216012   
468.500000	4.257436   
469.000000	4.282267   
469.500000	4.297903   
470.000000	4.273861   
470.500000	4.231806   
471.000000	4.167420   
471.500000	4.120988   
472.000000	4.113165   
472.500000	4.146685   
473.000000	4.188762   
473.500000	4.244789   
474.000000	4.294554   
474.500000	4.310731   
475.000000	4.291225   
475.500000	4.218444   
476.000000	4.125552   
476.500000	4.034915   
477.000000	3.972379   
477.500000	3.930964   
478.000000	3.918843   
478.500000	3.917137   
479.000000	3.920038   
479.500000	3.907083   
480.000000	3.861180   
480.500000	3.804348   
481.000000	3.739738   
481.500000	3.671091   
482.000000	3.607162   
482.500000	3.584208   
483.000000	3.559181   
483.500000	3.528582   
484.000000	3.505433   
484.500000	3.483998   
485.000000	3.514368   
485.500000	3.563555   
486.000000	3.593200   
486.500000	3.621848   
487.000000	3.694707   
487.500000	3.781611   
488.000000	3.837319   
488.500000	3.862019   
489.000000	3.831141   
489.500000	3.812025   
490.000000	3.795678   
490.500000	3.783666   
491.000000	3.718209   
491.500000	3.666702   
492.000000	3.644284   
492.500000	3.597560   
493.000000	3.524991   
493.500000	3.396917   
494.000000	3.300108   
494.500000	3.221028   
495.000000	3.243394   
495.500000	3.283711   
496.000000	3.346443   
496.500000	3.447570   
497.000000	3.534849   
497.500000	3.614919   
498.000000	3.658835   
498.500000	3.679717   
499.000000	3.636311   
499.500000	3.632475   
500.000000	3.631302   
500.500000	3.613426   
501.000000	3.571469   
501.500000	3.512409   
502.000000	3.487496   
502.500000	3.475140   
503.000000	3.458289   
503.500000	3.417898   
504.000000	3.383759   
504.500000	3.382130   
505.000000	3.408250   
505.500000	3.405498   
506.000000	3.347037   
506.500000	3.334761   
507.000000	3.326885   
507.500000	3.302479   
508.000000	3.273617   
508.500000	3.225703   
509.000000	3.162178   
509.500000	3.130301   
510.000000	3.128444   
510.500000	3.085700   
511.000000	3.109725   
511.500000	3.164720   
512.000000	3.240123   
512.500000	3.341962   
513.000000	3.413795   
513.500000	3.413473   
514.000000	3.382210   
514.500000	3.348029   
515.000000	3.247210   
515.500000	3.119183   
516.000000	2.984526   
516.500000	2.882427   
517.000000	2.830457   
517.500000	2.800658   
518.000000	2.783827   
518.500000	2.811874   
519.000000	2.850639   
519.500000	2.887460   
520.000000	2.889136   
520.500000	2.858224   
521.000000	2.827336   
521.500000	2.770464   
522.000000	2.696628   
522.500000	2.634892   
523.000000	2.611029   
523.500000	2.571418   
524.000000	2.543865   
524.500000	2.529739   
525.000000	2.522276   
525.500000	2.553366   
526.000000	2.570790   
526.500000	2.596921   
527.000000	2.627425   
527.500000	2.652907   
528.000000	2.653316   
528.500000	2.646710   
529.000000	2.632993   
529.500000	2.600566   
530.000000	2.568067   
530.500000	2.540319   
531.000000	2.527314   
531.500000	2.528210   
532.000000	2.524453   
532.500000	2.505517   
533.000000	2.499277   
533.500000	2.513190   
534.000000	2.509366   
534.500000	2.481048   
535.000000	2.464203   
535.500000	2.485033   
536.000000	2.508451   
536.500000	2.515119   
537.000000	2.481351   
537.500000	2.418223   
538.000000	2.366186   
538.500000	2.292747   
539.000000	2.212131   
539.500000	2.125874   
540.000000	2.091963   
540.500000	2.092737   
541.000000	2.118725   
541.500000	2.121109   
542.000000	2.128917   
542.500000	2.153131   
543.000000	2.141690   
543.500000	2.168876   
544.000000	2.174254   
544.500000	2.215585   
545.000000	2.294679   
545.500000	2.393984   
546.000000	2.448156   
546.500000	2.502816   
547.000000	2.534616   
547.500000	2.474050   
548.000000	2.391050   
548.500000	2.288575   
549.000000	2.193238   
549.500000	2.125205   
550.000000	2.081549   
550.500000	2.033310   
551.000000	2.044948   
551.500000	2.096691   
552.000000	2.137957   
552.500000	2.163802   
553.000000	2.187694   
553.500000	2.198310   
554.000000	2.181530   
554.500000	2.136588   
555.000000	2.084158   
555.500000	2.047081   
556.000000	2.027518   
556.500000	2.037561   
557.000000	2.033068   
557.500000	2.042335   
558.000000	2.058782   
558.500000	2.074121   
559.000000	2.072033   
559.500000	2.056060   
560.000000	2.016169   
560.500000	1.961240   
561.000000	1.915077   
561.500000	1.860589   
562.000000	1.820246   
562.500000	1.787346   
563.000000	1.777908   
563.500000	1.792788   
564.000000	1.822658   
564.500000	1.847165   
565.000000	1.867056   
565.500000	1.890988   
566.000000	1.911653   
566.500000	1.926831   
567.000000	1.905355   
567.500000	1.887928   
568.000000	1.878078   
568.500000	1.881250   
569.000000	1.884338   
569.500000	1.876627   
570.000000	1.862854   
570.500000	1.851131   
571.000000	1.857361   
571.500000	1.861296   
572.000000	1.876947   
572.500000	1.894964   
573.000000	1.919753   
573.500000	1.950925   
574.000000	1.969188   
574.500000	1.971415   
575.000000	1.955932   
575.500000	1.941179   
576.000000	1.928377   
576.500000	1.923295   
577.000000	1.922402   
577.500000	1.928943   
578.000000	1.951775   
578.500000	1.973164   
579.000000	1.997726   
579.500000	2.011499   
580.000000	2.017237   
580.500000	2.019599   
581.000000	2.014368   
581.500000	2.007537   
582.000000	2.003758   
582.500000	2.006652   
583.000000	2.007424   
583.500000	2.010343   
584.000000	1.995974   
584.500000	1.972818   
585.000000	1.947507   
585.500000	1.915555   
586.000000	1.891137   
586.500000	1.879993   
587.000000	1.889777   
587.500000	1.915938   
588.000000	1.966450   
588.500000	2.012545   
589.000000	2.056916   
589.500000	2.094712   
590.000000	2.121784   
590.500000	2.141554   
591.000000	2.147636   
591.500000	2.139307   
592.000000	2.127025   
592.500000	2.130032   
593.000000	2.130857   
593.500000	2.128905   
594.000000	2.121864   
594.500000	2.118175   

