PE FL                   SPECTRUM    ASCII       PEDS        1.60        
  -1
PM8BC7~1
23/10/09
18:56:06.00
23/10/09
18:56:06.00


594.500000
1









LS55
160.00
10.00
10.00
SCAN
1
20
100
100
0
800
0
2
0
1
7
ON
800 600 
1 0 0
#HDR
-1
-1
#GR
NM

0.00002384185791015625
0.0
300.000000
0.500000
590
8
35.219733
1.454485
#DATA
300.000000	33.465000 
300.500000	33.656942 
301.000000	34.376687 
301.500000	35.001695 
302.000000	35.219733 
302.500000	34.439313 
303.000000	33.449160 
303.500000	32.947741 
304.000000	32.409732 
304.500000	31.220493 
305.000000	29.761506 
305.500000	28.898117 
306.000000	28.354810 
306.500000	28.280417 
307.000000	27.979947 
307.500000	27.532594 
308.000000	27.894005 
308.500000	28.784750 
309.000000	29.781669 
309.500000	30.825232 
310.000000	31.965021 
310.500000	32.781011 
311.000000	33.241299 
311.500000	33.143648 
312.000000	32.429584 
312.500000	31.451557 
313.000000	30.388474 
313.500000	29.391615 
314.000000	28.845819 
314.500000	28.505701 
315.000000	28.133129 
315.500000	27.332950 
316.000000	26.331471 
316.500000	25.182586 
317.000000	23.812324 
317.500000	22.384650 
318.000000	20.995705 
318.500000	20.366382 
319.000000	20.255967 
319.500000	20.560971 
320.000000	20.954352 
320.500000	21.679884 
321.000000	22.316605 
321.500000	22.714418 
322.000000	22.941322 
322.500000	22.807488 
323.000000	22.827204 
323.500000	22.704287 
324.000000	22.695968 
324.500000	22.599147 
325.000000	22.522423 
325.500000	22.312426 
326.000000	21.947622 
326.500000	21.499565 
327.000000	21.011048 
327.500000	20.839285 
328.000000	20.838104 
328.500000	21.162909 
329.000000	21.754574 
329.500000	22.328259 
330.000000	22.794850 
330.500000	23.188849 
331.000000	23.050733 
331.500000	22.524745 
332.000000	21.882991 
332.500000	21.173704 
333.000000	20.736823 
333.500000	20.695721 
334.000000	20.961128 
334.500000	21.682617 
335.000000	22.667168 
335.500000	23.383678 
336.000000	23.949441 
336.500000	24.316509 
337.000000	24.484564 
337.500000	24.490414 
338.000000	24.121058 
338.500000	23.650821 
339.000000	23.207793 
339.500000	22.708130 
340.000000	21.912662 
340.500000	20.910589 
341.000000	19.949774 
341.500000	18.919172 
342.000000	17.933740 
342.500000	17.051146 
343.000000	16.531386 
343.500000	16.456306 
344.000000	16.611154 
344.500000	16.844308 
345.000000	16.985810 
345.500000	17.155665 
346.000000	17.080340 
346.500000	16.657380 
347.000000	16.051779 
347.500000	15.585311 
348.000000	15.182869 
348.500000	14.854996 
349.000000	14.655332 
349.500000	14.484431 
350.000000	14.515519 
350.500000	14.429559 
351.000000	14.125974 
351.500000	13.736977 
352.000000	13.397949 
352.500000	13.247100 
353.000000	13.164475 
353.500000	13.148670 
354.000000	13.210976 
354.500000	13.446334 
355.000000	13.524369 
355.500000	13.515075 
356.000000	13.356606 
356.500000	13.070953 
357.000000	12.796370 
357.500000	12.518017 
358.000000	12.200047 
358.500000	11.945701 
359.000000	11.970277 
359.500000	12.052059 
360.000000	12.280224 
360.500000	12.515930 
361.000000	12.601849 
361.500000	12.542415 
362.000000	12.341401 
362.500000	12.020756 
363.000000	11.555644 
363.500000	11.082761 
364.000000	10.563505 
364.500000	10.208240 
365.000000	10.035369 
365.500000	9.982048  
366.000000	10.011872 
366.500000	10.072230 
367.000000	10.306366 
367.500000	10.539739 
368.000000	10.718253 
368.500000	10.819524 
369.000000	10.906358 
369.500000	11.014356 
370.000000	11.077861 
370.500000	11.015053 
371.000000	10.807975 
371.500000	10.650722 
372.000000	10.516983 
372.500000	10.419982 
373.000000	10.425811 
373.500000	10.427950 
374.000000	10.429842 
374.500000	10.435576 
375.000000	10.307244 
375.500000	10.058554 
376.000000	9.646332  
376.500000	9.170449  
377.000000	8.654202  
377.500000	8.266465  
378.000000	7.960203  
378.500000	7.749289  
379.000000	7.747618  
379.500000	7.843195  
380.000000	8.103351  
380.500000	8.334562  
381.000000	8.529532  
381.500000	8.629003  
382.000000	8.721137  
382.500000	8.754388  
383.000000	8.624374  
383.500000	8.458738  
384.000000	8.245321  
384.500000	8.021207  
385.000000	7.705175  
385.500000	7.381013  
386.000000	7.041680  
386.500000	6.768581  
387.000000	6.607589  
387.500000	6.503109  
388.000000	6.496014  
388.500000	6.603363  
389.000000	6.779059  
389.500000	6.975200  
390.000000	7.151508  
390.500000	7.208758  
391.000000	7.203610  
391.500000	7.127362  
392.000000	7.003426  
392.500000	6.850880  
393.000000	6.744686  
393.500000	6.674404  
394.000000	6.660521  
394.500000	6.679784  
395.000000	6.699840  
395.500000	6.700908  
396.000000	6.631544  
396.500000	6.537744  
397.000000	6.404668  
397.500000	6.251532  
398.000000	6.068513  
398.500000	5.892057  
399.000000	5.733027  
399.500000	5.626996  
400.000000	5.560472  
400.500000	5.524080  
401.000000	5.527088  
401.500000	5.527109  
402.000000	5.525861  
402.500000	5.515935  
403.000000	5.482237  
403.500000	5.418576  
404.000000	5.389139  
404.500000	5.343030  
405.000000	5.267049  
405.500000	5.218245  
406.000000	5.158255  
406.500000	5.099866  
407.000000	5.051241  
407.500000	5.008698  
408.000000	4.951341  
408.500000	4.931569  
409.000000	4.948193  
409.500000	4.945099  
410.000000	4.969032  
410.500000	4.965570  
411.000000	4.957576  
411.500000	4.921411  
412.000000	4.857276  
412.500000	4.735426  
413.000000	4.615396  
413.500000	4.549309  
414.000000	4.498689  
414.500000	4.445038  
415.000000	4.311177  
415.500000	4.224495  
416.000000	4.169084  
416.500000	4.142758  
417.000000	4.123825  
417.500000	4.125027  
418.000000	4.181325  
418.500000	4.271327  
419.000000	4.360786  
419.500000	4.336422  
420.000000	4.289592  
420.500000	4.223399  
421.000000	4.140584  
421.500000	4.037483  
422.000000	3.928167  
422.500000	3.842245  
423.000000	3.780209  
423.500000	3.757827  
424.000000	3.687360  
424.500000	3.595787  
425.000000	3.500178  
425.500000	3.412754  
426.000000	3.343770  
426.500000	3.313698  
427.000000	3.312501  
427.500000	3.286377  
428.000000	3.286974  
428.500000	3.312317  
429.000000	3.349171  
429.500000	3.400051  
430.000000	3.450225  
430.500000	3.480364  
431.000000	3.521282  
431.500000	3.518916  
432.000000	3.493773  
432.500000	3.466138  
433.000000	3.451351  
433.500000	3.456769  
434.000000	3.510827  
434.500000	3.618687  
435.000000	3.713965  
435.500000	3.817885  
436.000000	3.858613  
436.500000	3.851322  
437.000000	3.778911  
437.500000	3.661288  
438.000000	3.556075  
438.500000	3.495228  
439.000000	3.521146  
439.500000	3.578349  
440.000000	3.686234  
440.500000	3.809910  
441.000000	3.959021  
441.500000	4.074278  
442.000000	4.094365  
442.500000	4.089674  
443.000000	4.064553  
443.500000	4.041285  
444.000000	4.000167  
444.500000	3.948019  
445.000000	3.927952  
445.500000	3.966661  
446.000000	4.006459  
446.500000	3.981407  
447.000000	3.953420  
447.500000	3.980602  
448.000000	4.033377  
448.500000	4.097920  
449.000000	4.190383  
449.500000	4.279895  
450.000000	4.378041  
450.500000	4.465396  
451.000000	4.503744  
451.500000	4.489037  
452.000000	4.467840  
452.500000	4.445370  
453.000000	4.408989  
453.500000	4.382330  
454.000000	4.327055  
454.500000	4.247567  
455.000000	4.143275  
455.500000	4.027060  
456.000000	3.878126  
456.500000	3.746530  
457.000000	3.680939  
457.500000	3.649126  
458.000000	3.663343  
458.500000	3.679450  
459.000000	3.688707  
459.500000	3.677644  
460.000000	3.627976  
460.500000	3.542302  
461.000000	3.458046  
461.500000	3.396480  
462.000000	3.361163  
462.500000	3.360918  
463.000000	3.359633  
463.500000	3.361847  
464.000000	3.378682  
464.500000	3.360938  
465.000000	3.318031  
465.500000	3.316471  
466.000000	3.315953  
466.500000	3.307803  
467.000000	3.276746  
467.500000	3.246793  
468.000000	3.221447  
468.500000	3.222900  
469.000000	3.209551  
469.500000	3.197388  
470.000000	3.229616  
470.500000	3.254610  
471.000000	3.265576  
471.500000	3.219189  
472.000000	3.139206  
472.500000	3.028927  
473.000000	2.899884  
473.500000	2.770667  
474.000000	2.670777  
474.500000	2.620805  
475.000000	2.606790  
475.500000	2.641764  
476.000000	2.675077  
476.500000	2.687840  
477.000000	2.696165  
477.500000	2.689878  
478.000000	2.681113  
478.500000	2.713659  
479.000000	2.782028  
479.500000	2.864033  
480.000000	2.954971  
480.500000	3.012772  
481.000000	3.033080  
481.500000	3.010780  
482.000000	2.918666  
482.500000	2.774363  
483.000000	2.639715  
483.500000	2.533839  
484.000000	2.474649  
484.500000	2.483568  
485.000000	2.519093  
485.500000	2.592586  
486.000000	2.690073  
486.500000	2.733249  
487.000000	2.720510  
487.500000	2.670869  
488.000000	2.595523  
488.500000	2.507884  
489.000000	2.422457  
489.500000	2.331120  
490.000000	2.269283  
490.500000	2.248693  
491.000000	2.222904  
491.500000	2.207074  
492.000000	2.186309  
492.500000	2.173452  
493.000000	2.182371  
493.500000	2.213354  
494.000000	2.237318  
494.500000	2.287446  
495.000000	2.338746  
495.500000	2.382086  
496.000000	2.423310  
496.500000	2.435082  
497.000000	2.414492  
497.500000	2.395288  
498.000000	2.376812  
498.500000	2.356751  
499.000000	2.365614  
499.500000	2.378182  
500.000000	2.403086  
500.500000	2.430416  
501.000000	2.452940  
501.500000	2.442770  
502.000000	2.444535  
502.500000	2.453021  
503.000000	2.458536  
503.500000	2.457258  
504.000000	2.470289  
504.500000	2.492530  
505.000000	2.502628  
505.500000	2.503893  
506.000000	2.471552  
506.500000	2.429061  
507.000000	2.393181  
507.500000	2.369294  
508.000000	2.343408  
508.500000	2.340622  
509.000000	2.364992  
509.500000	2.395295  
510.000000	2.426508  
510.500000	2.447070  
511.000000	2.444165  
511.500000	2.450287  
512.000000	2.454889  
512.500000	2.446880  
513.000000	2.445521  
513.500000	2.446907  
514.000000	2.436425  
514.500000	2.418463  
515.000000	2.392012  
515.500000	2.339355  
516.000000	2.285952  
516.500000	2.236924  
517.000000	2.203699  
517.500000	2.194818  
518.000000	2.221673  
518.500000	2.246030  
519.000000	2.288919  
519.500000	2.340313  
520.000000	2.369146  
520.500000	2.379128  
521.000000	2.374890  
521.500000	2.358710  
522.000000	2.332942  
522.500000	2.311021  
523.000000	2.280781  
523.500000	2.260307  
524.000000	2.267073  
524.500000	2.272502  
525.000000	2.260824  
525.500000	2.259766  
526.000000	2.277315  
526.500000	2.295223  
527.000000	2.299270  
527.500000	2.290658  
528.000000	2.275531  
528.500000	2.282698  
529.000000	2.307113  
529.500000	2.321617  
530.000000	2.339036  
530.500000	2.373988  
531.000000	2.408202  
531.500000	2.396743  
532.000000	2.353742  
532.500000	2.280185  
533.000000	2.201554  
533.500000	2.143418  
534.000000	2.108770  
534.500000	2.095905  
535.000000	2.126794  
535.500000	2.182526  
536.000000	2.231416  
536.500000	2.256481  
537.000000	2.252638  
537.500000	2.211711  
538.000000	2.135357  
538.500000	2.066942  
539.000000	2.000878  
539.500000	1.961820  
540.000000	1.950085  
540.500000	1.953903  
541.000000	1.960821  
541.500000	1.970977  
542.000000	1.977213  
542.500000	1.963696  
543.000000	1.961550  
543.500000	1.957550  
544.000000	1.955517  
544.500000	1.964894  
545.000000	1.997975  
545.500000	2.030058  
546.000000	2.057054  
546.500000	2.081768  
547.000000	2.092149  
547.500000	2.092223  
548.000000	2.085657  
548.500000	2.062284  
549.000000	2.034303  
549.500000	2.020949  
550.000000	2.018859  
550.500000	2.028158  
551.000000	2.041368  
551.500000	2.066991  
552.000000	2.079209  
552.500000	2.086175  
553.000000	2.086641  
553.500000	2.081672  
554.000000	2.066013  
554.500000	2.051976  
555.000000	2.043685  
555.500000	2.030282  
556.000000	2.033065  
556.500000	2.031230  
557.000000	2.024807  
557.500000	2.015774  
558.000000	2.014085  
558.500000	1.990401  
559.000000	1.966812  
559.500000	1.952097  
560.000000	1.929307  
560.500000	1.908223  
561.000000	1.888167  
561.500000	1.871444  
562.000000	1.855730  
562.500000	1.853861  
563.000000	1.835691  
563.500000	1.829537  
564.000000	1.837174  
564.500000	1.842369  
565.000000	1.837988  
565.500000	1.831264  
566.000000	1.817051  
566.500000	1.808251  
567.000000	1.794106  
567.500000	1.758287  
568.000000	1.707521  
568.500000	1.661529  
569.000000	1.622837  
569.500000	1.587427  
570.000000	1.559986  
570.500000	1.541103  
571.000000	1.552478  
571.500000	1.586675  
572.000000	1.639223  
572.500000	1.690868  
573.000000	1.746080  
573.500000	1.798781  
574.000000	1.844736  
574.500000	1.871121  
575.000000	1.861728  
575.500000	1.840634  
576.000000	1.803760  
576.500000	1.760996  
577.000000	1.708792  
577.500000	1.680096  
578.000000	1.661632  
578.500000	1.678275  
579.000000	1.698670  
579.500000	1.720874  
580.000000	1.735866  
580.500000	1.742085  
581.000000	1.738927  
581.500000	1.722356  
582.000000	1.703607  
582.500000	1.671560  
583.000000	1.678317  
583.500000	1.695361  
584.000000	1.717847  
584.500000	1.735060  
585.000000	1.746499  
585.500000	1.762350  
586.000000	1.776355  
586.500000	1.757649  
587.000000	1.688451  
587.500000	1.635301  
588.000000	1.580785  
588.500000	1.539726  
589.000000	1.496732  
589.500000	1.463121  
590.000000	1.454485  
590.500000	1.505039  
591.000000	1.558369  
591.500000	1.588333  
592.000000	1.624872  
592.500000	1.643125  
593.000000	1.643491  
593.500000	1.630003  
594.000000	1.610534  
594.500000	1.563471  

