PE FL                   SPECTRUM    ASCII       PEDS        1.60        
  -1
QU5CD5~1
23/10/11
16:11:59.00
23/10/11
16:11:59.00


424.500000
1









LS55
338.00
5.00
5.00
SCAN
1
16
100
100
0
100
0
1
0
1
7
ON
430 338 
1 0 0
#HDR
-1
-1
#GR
NM

0.00002384185791015625
0.0
330.000000
0.500000
190
8
108.885781
-5.000000
#DATA
330.000000	-5.000000  
330.500000	-1.429966  
331.000000	1.681011   
331.500000	4.360221   
332.000000	6.684607   
332.500000	8.760623   
333.000000	10.843268  
333.500000	13.165909  
334.000000	15.988001  
334.500000	19.476073  
335.000000	23.420157  
335.500000	27.375599  
336.000000	31.205256  
336.500000	34.676576  
337.000000	37.584385  
337.500000	39.727450  
338.000000	41.134082  
338.500000	41.951189  
339.000000	42.354774  
339.500000	42.460797  
340.000000	42.325104  
340.500000	42.102222  
341.000000	41.981079  
341.500000	42.189931  
342.000000	42.724468  
342.500000	43.697947  
343.000000	45.184515  
343.500000	47.314513  
344.000000	50.029580  
344.500000	53.139360  
345.000000	56.408505  
345.500000	59.776767  
346.000000	63.185247  
346.500000	66.559739  
347.000000	69.800489  
347.500000	72.781886  
348.000000	75.639600  
348.500000	78.486099  
349.000000	81.332328  
349.500000	83.959498  
350.000000	86.338188  
350.500000	88.522208  
351.000000	90.624000  
351.500000	92.535662  
352.000000	94.321812  
352.500000	96.070872  
353.000000	97.929858  
353.500000	99.757065  
354.000000	101.488892 
354.500000	102.945751 
355.000000	104.149247 
355.500000	105.248523 
356.000000	106.047376 
356.500000	106.653192 
357.000000	107.119777 
357.500000	107.544805 
358.000000	107.900555 
358.500000	108.357111 
359.000000	108.678039 
359.500000	108.849545 
360.000000	108.885781 
360.500000	108.781349 
361.000000	108.603481 
361.500000	108.318336 
362.000000	107.846480 
362.500000	107.219292 
363.000000	106.775594 
363.500000	106.388850 
364.000000	106.024921 
364.500000	105.654869 
365.000000	105.431290 
365.500000	105.332879 
366.000000	105.330536 
366.500000	105.060602 
367.000000	104.463517 
367.500000	103.762843 
368.000000	102.880177 
368.500000	101.900912 
369.000000	100.818292 
369.500000	99.784535  
370.000000	98.534744  
370.500000	97.376244  
371.000000	96.291800  
371.500000	95.162938  
372.000000	94.158118  
372.500000	93.139783  
373.000000	92.218298  
373.500000	91.425967  
374.000000	90.876216  
374.500000	90.048151  
375.000000	89.004332  
375.500000	87.791252  
376.000000	86.384411  
376.500000	84.864835  
377.000000	83.145830  
377.500000	81.484713  
378.000000	79.881141  
378.500000	78.563563  
379.000000	77.334695  
379.500000	76.104915  
380.000000	74.778447  
380.500000	73.441581  
381.000000	72.091649  
381.500000	70.697759  
382.000000	69.536693  
382.500000	68.506967  
383.000000	67.630427  
383.500000	67.017652  
384.000000	66.513774  
384.500000	65.872596  
385.000000	65.106277  
385.500000	64.062234  
386.000000	62.679647  
386.500000	61.244515  
387.000000	59.762737  
387.500000	58.343215  
388.000000	57.181377  
388.500000	56.176755  
389.000000	55.233779  
389.500000	54.317423  
390.000000	53.313428  
390.500000	52.189284  
391.000000	51.049817  
391.500000	49.926419  
392.000000	48.821533  
392.500000	47.930749  
393.000000	47.174346  
393.500000	46.566414  
394.000000	46.046409  
394.500000	45.501533  
395.000000	44.895369  
395.500000	44.211869  
396.000000	43.555612  
396.500000	42.839369  
397.000000	42.083358  
397.500000	41.245043  
398.000000	40.410438  
398.500000	39.596475  
399.000000	38.808275  
399.500000	37.985091  
400.000000	37.095567  
400.500000	36.324273  
401.000000	35.638075  
401.500000	34.961632  
402.000000	34.166400  
402.500000	33.343787  
403.000000	32.603379  
403.500000	31.931209  
404.000000	31.263154  
404.500000	30.570513  
405.000000	29.859092  
405.500000	29.218345  
406.000000	28.626832  
406.500000	28.005319  
407.000000	27.395202  
407.500000	26.826846  
408.000000	26.326550  
408.500000	25.936908  
409.000000	25.595168  
409.500000	25.258084  
410.000000	24.944527  
410.500000	24.602840  
411.000000	24.169814  
411.500000	23.657181  
412.000000	23.013361  
412.500000	22.274517  
413.000000	21.588321  
413.500000	20.931584  
414.000000	20.310587  
414.500000	19.769228  
415.000000	19.274294  
415.500000	18.797818  
416.000000	18.384063  
416.500000	17.848817  
417.000000	17.195131  
417.500000	16.514522  
418.000000	15.837084  
418.500000	15.191948  
419.000000	14.654185  
419.500000	14.217415  
420.000000	13.853672  
420.500000	13.608354  
421.000000	13.435255  
421.500000	13.300858  
422.000000	13.136631  
422.500000	12.962686  
423.000000	12.690540  
423.500000	12.431164  
424.000000	12.168742  
424.500000	11.907908  

