PE FL                   SPECTRUM    ASCII       PEDS        1.60        
  -1
QU550D~1
23/10/11
15:59:16.00
23/10/11
15:59:16.00


424.500000
1









LS55
338.00
5.00
5.00
SCAN
1
16
100
100
0
100
0
1
0
1
7
ON
430 338 
1 0 0
#HDR
-1
-1
#GR
NM

0.00002384185791015625
0.0
330.000000
0.500000
190
8
106.209861
4.891000
#DATA
330.000000	4.891000   
330.500000	4.973186   
331.000000	5.267219   
331.500000	5.880753   
332.000000	6.760767   
332.500000	8.065944   
333.000000	10.001130  
333.500000	12.534635  
334.000000	15.709677  
334.500000	19.392659  
335.000000	23.243802  
335.500000	27.236318  
336.000000	31.158148  
336.500000	34.552567  
337.000000	37.282432  
337.500000	39.367200  
338.000000	40.689144  
338.500000	41.459886  
339.000000	41.846471  
339.500000	41.859827  
340.000000	41.814058  
340.500000	41.758735  
341.000000	41.641990  
341.500000	41.605995  
342.000000	41.957010  
342.500000	42.734183  
343.000000	44.088687  
343.500000	45.973071  
344.000000	48.313172  
344.500000	51.165743  
345.000000	54.353419  
345.500000	57.618545  
346.000000	60.797717  
346.500000	63.921896  
347.000000	66.950524  
347.500000	69.989298  
348.000000	73.011618  
348.500000	75.953947  
349.000000	78.826307  
349.500000	81.650076  
350.000000	84.359217  
350.500000	86.849291  
351.000000	89.137431  
351.500000	91.141860  
352.000000	92.920283  
352.500000	94.629171  
353.000000	96.205041  
353.500000	97.546786  
354.000000	98.779523  
354.500000	100.012069 
355.000000	101.172560 
355.500000	102.252536 
356.000000	103.170593 
356.500000	103.908920 
357.000000	104.555549 
357.500000	105.066495 
358.000000	105.376003 
358.500000	105.597792 
359.000000	105.852670 
359.500000	106.057874 
360.000000	106.143985 
360.500000	106.209861 
361.000000	106.198771 
361.500000	106.102507 
362.000000	105.826731 
362.500000	105.245902 
363.000000	104.530917 
363.500000	103.854361 
364.000000	103.226568 
364.500000	102.588712 
365.000000	102.055597 
365.500000	101.613908 
366.000000	101.194211 
366.500000	100.810446 
367.000000	100.361096 
367.500000	99.878643  
368.000000	99.246328  
368.500000	98.595695  
369.000000	97.939874  
369.500000	97.327878  
370.000000	96.585229  
370.500000	95.616170  
371.000000	94.494074  
371.500000	93.347394  
372.000000	92.164184  
372.500000	90.709208  
373.000000	89.097241  
373.500000	87.541683  
374.000000	86.165986  
374.500000	84.989878  
375.000000	83.831030  
375.500000	82.631496  
376.000000	81.596923  
376.500000	80.792791  
377.000000	80.063198  
377.500000	79.225002  
378.000000	78.345028  
378.500000	77.478940  
379.000000	76.655897  
379.500000	75.882110  
380.000000	74.994178  
380.500000	73.993426  
381.000000	72.877088  
381.500000	71.681981  
382.000000	70.340136  
382.500000	68.858975  
383.000000	67.272065  
383.500000	65.695418  
384.000000	64.380997  
384.500000	63.237151  
385.000000	62.180386  
385.500000	61.197765  
386.000000	60.221392  
386.500000	59.265163  
387.000000	58.252162  
387.500000	57.175459  
388.000000	55.992649  
388.500000	54.925966  
389.000000	53.904388  
389.500000	52.845926  
390.000000	51.826702  
390.500000	50.704850  
391.000000	49.685168  
391.500000	48.687693  
392.000000	47.697898  
392.500000	46.767121  
393.000000	46.006324  
393.500000	45.285851  
394.000000	44.550628  
394.500000	43.809137  
395.000000	42.941659  
395.500000	42.106483  
396.000000	41.252595  
396.500000	40.432170  
397.000000	39.699427  
397.500000	39.101404  
398.000000	38.499497  
398.500000	37.913812  
399.000000	37.343710  
399.500000	36.637425  
400.000000	35.862025  
400.500000	35.034795  
401.000000	34.232240  
401.500000	33.526425  
402.000000	32.957764  
402.500000	32.346534  
403.000000	31.695304  
403.500000	31.110456  
404.000000	30.486001  
404.500000	29.743359  
405.000000	28.960720  
405.500000	28.145263  
406.000000	27.437380  
406.500000	26.977026  
407.000000	26.667989  
407.500000	26.333900  
408.000000	26.075007  
408.500000	25.796219  
409.000000	25.348341  
409.500000	24.893267  
410.000000	24.288006  
410.500000	23.537398  
411.000000	22.806412  
411.500000	22.153988  
412.000000	21.473782  
412.500000	20.812716  
413.000000	20.171591  
413.500000	19.478210  
414.000000	18.919672  
414.500000	18.479711  
415.000000	18.002701  
415.500000	17.560638  
416.000000	17.171134  
416.500000	16.782398  
417.000000	16.391612  
417.500000	16.010962  
418.000000	15.562858  
418.500000	15.067877  
419.000000	14.630725  
419.500000	14.206890  
420.000000	13.870751  
420.500000	13.568602  
421.000000	13.297037  
421.500000	13.035839  
422.000000	12.825335  
422.500000	12.653636  
423.000000	12.464995  
423.500000	12.297793  
424.000000	12.131521  
424.500000	12.029298  

