PE FL                   SPECTRUM    ASCII       PEDS        1.60        
  -1
PM2FC7~1
23/10/10
16:37:40.00
23/10/10
16:37:40.00


444.500000
1









LS55
10.00
5.00
5.00
SCAN
1
20
100
100
0
500
0
2
0
1
7
ON
500 450 
1 0 0
#HDR
-1
-1
#GR
NM

0.00002384185791015625
0.0
300.000000
0.500000
290
8
86.253246
-3.803196
#DATA
300.000000	1.030000  
300.500000	0.597451  
301.000000	0.082373  
301.500000	-0.385529 
302.000000	-0.467720 
302.500000	-0.388121 
303.000000	-0.450372 
303.500000	-0.791304 
304.000000	-1.396383 
304.500000	-2.064736 
305.000000	-2.585237 
305.500000	-2.917583 
306.000000	-3.400561 
306.500000	-3.651233 
307.000000	-3.513623 
307.500000	-3.293352 
308.000000	-2.839109 
308.500000	-2.606650 
309.000000	-2.494537 
309.500000	-2.335899 
310.000000	-2.203707 
310.500000	-2.274518 
311.000000	-2.360763 
311.500000	-2.293693 
312.000000	-2.266314 
312.500000	-1.988921 
313.000000	-1.587958 
313.500000	-1.348606 
314.000000	-1.143358 
314.500000	-0.860543 
315.000000	-0.792042 
315.500000	-0.884615 
316.000000	-1.110465 
316.500000	-1.508804 
317.000000	-1.803281 
317.500000	-2.183092 
318.000000	-2.547203 
318.500000	-2.980556 
319.000000	-3.365678 
319.500000	-3.695115 
320.000000	-3.803196 
320.500000	-3.749059 
321.000000	-3.588261 
321.500000	-3.152238 
322.000000	-2.781778 
322.500000	-2.426045 
323.000000	-2.189957 
323.500000	-2.075612 
324.000000	-1.998347 
324.500000	-1.949632 
325.000000	-1.662917 
325.500000	-1.225216 
326.000000	-0.449846 
326.500000	0.383200  
327.000000	1.304924  
327.500000	2.270233  
328.000000	3.311827  
328.500000	4.302193  
329.000000	5.023451  
329.500000	5.886699  
330.000000	6.757103  
330.500000	7.639749  
331.000000	8.663188  
331.500000	9.685072  
332.000000	10.563057 
332.500000	11.806502 
333.000000	13.428073 
333.500000	15.040329 
334.000000	17.495387 
334.500000	20.693104 
335.000000	24.722539 
335.500000	29.788154 
336.000000	35.693487 
336.500000	42.342622 
337.000000	49.399138 
337.500000	56.758679 
338.000000	63.496897 
338.500000	69.948697 
339.000000	75.538911 
339.500000	79.997133 
340.000000	83.284745 
340.500000	85.234067 
341.000000	86.253246 
341.500000	86.042325 
342.000000	85.269284 
342.500000	83.425335 
343.000000	81.181573 
343.500000	78.478240 
344.000000	75.289975 
344.500000	71.856335 
345.000000	68.049343 
345.500000	64.278093 
346.000000	60.212964 
346.500000	56.344246 
347.000000	52.334223 
347.500000	48.351121 
348.000000	44.584763 
348.500000	40.872386 
349.000000	37.455346 
349.500000	34.164752 
350.000000	30.958661 
350.500000	27.709883 
351.000000	24.709185 
351.500000	21.753145 
352.000000	18.899926 
352.500000	16.323153 
353.000000	13.970306 
353.500000	12.068107 
354.000000	10.445054 
354.500000	9.215748  
355.000000	8.369069  
355.500000	7.745379  
356.000000	7.186061  
356.500000	6.638373  
357.000000	6.229050  
357.500000	5.929772  
358.000000	5.768941  
358.500000	5.523482  
359.000000	5.261164  
359.500000	5.050064  
360.000000	4.747182  
360.500000	4.249539  
361.000000	3.643669  
361.500000	3.120787  
362.000000	2.721880  
362.500000	2.472409  
363.000000	2.318105  
363.500000	2.210825  
364.000000	2.266954  
364.500000	2.360829  
365.000000	2.436177  
365.500000	2.458722  
366.000000	2.496256  
366.500000	2.516589  
367.000000	2.630609  
367.500000	2.732803  
368.000000	2.730377  
368.500000	2.741074  
369.000000	2.720274  
369.500000	2.622463  
370.000000	2.505708  
370.500000	2.426319  
371.000000	2.341123  
371.500000	2.350561  
372.000000	2.361852  
372.500000	2.312847  
373.000000	2.252485  
373.500000	2.196284  
374.000000	2.095077  
374.500000	1.957544  
375.000000	1.935092  
375.500000	1.934275  
376.000000	2.006099  
376.500000	2.083534  
377.000000	2.222903  
377.500000	2.326684  
378.000000	2.387888  
378.500000	2.349939  
379.000000	2.139357  
379.500000	1.972036  
380.000000	1.870918  
380.500000	1.777443  
381.000000	1.647934  
381.500000	1.686275  
382.000000	1.787418  
382.500000	1.906660  
383.000000	2.057145  
383.500000	2.078251  
384.000000	2.099046  
384.500000	2.166672  
385.000000	2.200304  
385.500000	2.143047  
386.000000	2.141373  
386.500000	2.126234  
387.000000	2.085886  
387.500000	2.106511  
388.000000	2.156721  
388.500000	2.162364  
389.000000	2.174655  
389.500000	2.160159  
390.000000	2.103108  
390.500000	2.050117  
391.000000	1.994099  
391.500000	1.870772  
392.000000	1.781893  
392.500000	1.801738  
393.000000	1.882831  
393.500000	2.034644  
394.000000	2.201299  
394.500000	2.319270  
395.000000	2.411645  
395.500000	2.507617  
396.000000	2.494241  
396.500000	2.406636  
397.000000	2.307249  
397.500000	2.257836  
398.000000	2.240867  
398.500000	2.256982  
399.000000	2.217348  
399.500000	2.165586  
400.000000	2.101113  
400.500000	1.975032  
401.000000	1.798649  
401.500000	1.552720  
402.000000	1.360899  
402.500000	1.249908  
403.000000	1.223579  
403.500000	1.235161  
404.000000	1.373348  
404.500000	1.564331  
405.000000	1.761179  
405.500000	1.927313  
406.000000	2.023146  
406.500000	2.096920  
407.000000	2.136218  
407.500000	2.114711  
408.000000	2.028726  
408.500000	1.978870  
409.000000	1.972113  
409.500000	2.002501  
410.000000	2.019016  
410.500000	2.007655  
411.000000	2.000913  
411.500000	2.001068  
412.000000	1.991436  
412.500000	1.918503  
413.000000	1.814626  
413.500000	1.769013  
414.000000	1.775209  
414.500000	1.774712  
415.000000	1.750507  
415.500000	1.739835  
416.000000	1.728920  
416.500000	1.712846  
417.000000	1.642487  
417.500000	1.542496  
418.000000	1.505425  
418.500000	1.541207  
419.000000	1.591711  
419.500000	1.641914  
420.000000	1.704581  
420.500000	1.758807  
421.000000	1.805703  
421.500000	1.789940  
422.000000	1.732639  
422.500000	1.703986  
423.000000	1.702856  
423.500000	1.713728  
424.000000	1.727857  
424.500000	1.759631  
425.000000	1.806415  
425.500000	1.850831  
426.000000	1.871218  
426.500000	1.854171  
427.000000	1.840126  
427.500000	1.827506  
428.000000	1.804313  
428.500000	1.761296  
429.000000	1.724669  
429.500000	1.685104  
430.000000	1.635235  
430.500000	1.582394  
431.000000	1.518666  
431.500000	1.476427  
432.000000	1.450582  
432.500000	1.432461  
433.000000	1.409429  
433.500000	1.419717  
434.000000	1.446355  
434.500000	1.470988  
435.000000	1.488018  
435.500000	1.485899  
436.000000	1.490355  
436.500000	1.486272  
437.000000	1.467958  
437.500000	1.434460  
438.000000	1.426938  
438.500000	1.412850  
439.000000	1.386623  
439.500000	1.357889  
440.000000	1.337348  
440.500000	1.331522  
441.000000	1.324460  
441.500000	1.318110  
442.000000	1.319935  
442.500000	1.371585  
443.000000	1.433197  
443.500000	1.476020  
444.000000	1.509886  
444.500000	1.537167  

