PE FL                   SPECTRUM    ASCII       PEDS        1.60        
  -1
PM4FC7~1
23/10/10
16:38:49.00
23/10/10
16:38:49.00


444.500000
1









LS55
20.00
5.00
5.00
SCAN
1
20
100
100
0
500
0
2
0
1
7
ON
500 450 
1 0 0
#HDR
-1
-1
#GR
NM

0.00002384185791015625
0.0
300.000000
0.500000
290
8
108.954646
-3.791395
#DATA
300.000000	-0.000000  
300.500000	-1.074141  
301.000000	-1.571192  
301.500000	-1.794555  
302.000000	-1.960319  
302.500000	-2.290377  
303.000000	-2.366351  
303.500000	-2.216126  
304.000000	-2.219366  
304.500000	-2.834356  
305.000000	-3.468828  
305.500000	-3.791395  
306.000000	-3.758295  
306.500000	-3.472394  
307.000000	-3.194980  
307.500000	-2.740712  
308.000000	-2.187557  
308.500000	-1.822824  
309.000000	-1.817209  
309.500000	-2.030762  
310.000000	-2.233488  
310.500000	-2.289553  
311.000000	-2.094125  
311.500000	-1.788603  
312.000000	-1.341706  
312.500000	-0.996575  
313.000000	-0.998215  
313.500000	-0.993211  
314.000000	-1.162677  
314.500000	-1.371078  
315.000000	-1.466598  
315.500000	-1.167523  
316.000000	-0.431770  
316.500000	0.824041   
317.000000	2.112727   
317.500000	3.140625   
318.000000	4.206012   
318.500000	5.085643   
319.000000	5.658338   
319.500000	5.842181   
320.000000	5.948519   
320.500000	6.049060   
321.000000	6.453787   
321.500000	7.027973   
322.000000	7.786303   
322.500000	8.753332   
323.000000	9.841847   
323.500000	10.993476  
324.000000	12.039188  
324.500000	12.892398  
325.000000	13.324344  
325.500000	13.594746  
326.000000	13.622040  
326.500000	13.764051  
327.000000	14.093295  
327.500000	14.780633  
328.000000	15.674565  
328.500000	16.735582  
329.000000	18.057291  
329.500000	19.480201  
330.000000	20.948945  
330.500000	22.236436  
331.000000	23.889434  
331.500000	25.798207  
332.000000	28.011926  
332.500000	30.586294  
333.000000	33.549886  
333.500000	37.043856  
334.000000	41.119970  
334.500000	45.998329  
335.000000	51.433674  
335.500000	57.638597  
336.000000	64.272207  
336.500000	71.057097  
337.000000	78.049198  
337.500000	84.736102  
338.000000	90.781442  
338.500000	96.193250  
339.000000	100.977604 
339.500000	104.651529 
340.000000	107.415060 
340.500000	108.954646 
341.000000	108.721433 
341.500000	107.198617 
342.000000	104.321258 
342.500000	100.182540 
343.000000	95.275135  
343.500000	90.341477  
344.000000	85.305307  
344.500000	80.503552  
345.000000	75.820775  
345.500000	70.738601  
346.000000	65.561033  
346.500000	60.077013  
347.000000	54.343346  
347.500000	48.574079  
348.000000	43.242373  
348.500000	38.276681  
349.000000	33.799608  
349.500000	30.027416  
350.000000	26.508973  
350.500000	23.264685  
351.000000	20.159370  
351.500000	17.416287  
352.000000	14.858532  
352.500000	12.626656  
353.000000	10.814707  
353.500000	9.291408   
354.000000	8.197837   
354.500000	7.213728   
355.000000	6.216466   
355.500000	5.268484   
356.000000	4.510799   
356.500000	3.871399   
357.000000	3.466116   
357.500000	3.374178   
358.000000	3.347844   
358.500000	3.482672   
359.000000	3.613917   
359.500000	3.609430   
360.000000	3.486312   
360.500000	3.195589   
361.000000	2.691994   
361.500000	2.260168   
362.000000	1.931030   
362.500000	1.634862   
363.000000	1.422134   
363.500000	1.254927   
364.000000	1.122339   
364.500000	1.038781   
365.000000	0.916255   
365.500000	0.707150   
366.000000	0.612512   
366.500000	0.582928   
367.000000	0.585709   
367.500000	0.622740   
368.000000	0.676070   
368.500000	0.719816   
369.000000	0.827073   
369.500000	0.879448   
370.000000	0.841689   
370.500000	0.859018   
371.000000	0.880851   
371.500000	0.923009   
372.000000	0.936421   
372.500000	0.997476   
373.000000	0.965317   
373.500000	0.993190   
374.000000	0.972935   
374.500000	0.936147   
375.000000	0.892181   
375.500000	0.824931   
376.000000	0.800294   
376.500000	0.756343   
377.000000	0.787489   
377.500000	0.737467   
378.000000	0.733083   
378.500000	0.689209   
379.000000	0.664996   
379.500000	0.643117   
380.000000	0.559661   
380.500000	0.542622   
381.000000	0.576610   
381.500000	0.668523   
382.000000	0.741415   
382.500000	0.801812   
383.000000	0.839105   
383.500000	0.917313   
384.000000	0.985448   
384.500000	0.989576   
385.000000	0.996141   
385.500000	1.059113   
386.000000	1.107041   
386.500000	1.144925   
387.000000	1.118207   
387.500000	1.145715   
388.000000	1.204720   
388.500000	1.257362   
389.000000	1.290481   
389.500000	1.298493   
390.000000	1.335986   
390.500000	1.343899   
391.000000	1.366385   
391.500000	1.273177   
392.000000	1.194662   
392.500000	1.084081   
393.000000	0.977700   
393.500000	0.920716   
394.000000	0.855864   
394.500000	0.810958   
395.000000	0.819672   
395.500000	0.902779   
396.000000	0.956634   
396.500000	1.053797   
397.000000	1.096672   
397.500000	1.136449   
398.000000	1.171460   
398.500000	1.142432   
399.000000	1.020617   
399.500000	0.883104   
400.000000	0.748360   
400.500000	0.628879   
401.000000	0.600496   
401.500000	0.578807   
402.000000	0.605901   
402.500000	0.702533   
403.000000	0.820130   
403.500000	0.905605   
404.000000	1.003682   
404.500000	1.077281   
405.000000	1.138338   
405.500000	1.224638   
406.000000	1.275523   
406.500000	1.289300   
407.000000	1.267840   
407.500000	1.218235   
408.000000	1.163883   
408.500000	1.109142   
409.000000	1.032649   
409.500000	0.975505   
410.000000	0.999251   
410.500000	1.068484   
411.000000	1.161816   
411.500000	1.210645   
412.000000	1.209008   
412.500000	1.200223   
413.000000	1.153373   
413.500000	1.069737   
414.000000	0.967309   
414.500000	0.890438   
415.000000	0.845827   
415.500000	0.850284   
416.000000	0.877355   
416.500000	0.904112   
417.000000	0.985530   
417.500000	1.073198   
418.000000	1.171553   
418.500000	1.252959   
419.000000	1.328897   
419.500000	1.371661   
420.000000	1.377407   
420.500000	1.354627   
421.000000	1.295208   
421.500000	1.236312   
422.000000	1.166532   
422.500000	1.098868   
423.000000	1.042613   
423.500000	1.004942   
424.000000	0.959625   
424.500000	0.878232   
425.000000	0.810757   
425.500000	0.745722   
426.000000	0.696248   
426.500000	0.658869   
427.000000	0.615915   
427.500000	0.595256   
428.000000	0.617827   
428.500000	0.668772   
429.000000	0.702407   
429.500000	0.738917   
430.000000	0.781890   
430.500000	0.826768   
431.000000	0.878308   
431.500000	0.898517   
432.000000	0.889333   
432.500000	0.895000   
433.000000	0.928327   
433.500000	0.948726   
434.000000	0.963060   
434.500000	0.955516   
435.000000	0.941995   
435.500000	0.924073   
436.000000	0.899256   
436.500000	0.847425   
437.000000	0.803940   
437.500000	0.791878   
438.000000	0.806168   
438.500000	0.832069   
439.000000	0.846636   
439.500000	0.870966   
440.000000	0.886605   
440.500000	0.898981   
441.000000	0.896713   
441.500000	0.899875   
442.000000	0.920656   
442.500000	0.955372   
443.000000	0.987253   
443.500000	1.006000   
444.000000	1.030559   
444.500000	1.032890   

