PE FL                   SPECTRUM    ASCII       PEDS        1.60        
  -1
PM9FC7~1
23/10/10
16:41:40.00
23/10/10
16:41:40.00


444.500000
1









LS55
45.00
5.00
5.00
SCAN
1
20
100
100
0
500
0
2
0
1
7
ON
500 450 
1 0 0
#HDR
-1
-1
#GR
NM

0.00002384185791015625
0.0
300.000000
0.500000
290
8
65.558216
0.213554
#DATA
300.000000	14.563000 
300.500000	14.796509 
301.000000	15.137537 
301.500000	15.730738 
302.000000	17.034411 
302.500000	18.997486 
303.000000	20.611891 
303.500000	21.647575 
304.000000	22.225510 
304.500000	22.517850 
305.000000	22.662238 
305.500000	22.728035 
306.000000	22.648618 
306.500000	22.913505 
307.000000	23.679722 
307.500000	24.155063 
308.000000	24.256024 
308.500000	24.105611 
309.000000	24.126722 
309.500000	24.262793 
310.000000	24.133043 
310.500000	23.961296 
311.000000	23.929808 
311.500000	24.295778 
312.000000	24.565067 
312.500000	24.289664 
313.000000	23.659395 
313.500000	23.134550 
314.000000	22.526361 
314.500000	21.644011 
315.000000	20.737644 
315.500000	19.981502 
316.000000	19.829439 
316.500000	20.392114 
317.000000	20.954603 
317.500000	21.771707 
318.000000	22.989395 
318.500000	24.318806 
319.000000	25.456571 
319.500000	26.485730 
320.000000	26.816002 
320.500000	26.677803 
321.000000	26.605690 
321.500000	26.200089 
322.000000	25.841846 
322.500000	25.548144 
323.000000	25.168849 
323.500000	24.813555 
324.000000	24.806406 
324.500000	24.658721 
325.000000	24.389247 
325.500000	24.059363 
326.000000	23.719551 
326.500000	23.443548 
327.000000	23.168187 
327.500000	23.121444 
328.000000	23.031329 
328.500000	23.293773 
329.000000	23.666313 
329.500000	24.221532 
330.000000	24.648150 
330.500000	25.097634 
331.000000	25.408677 
331.500000	25.587629 
332.000000	26.188294 
332.500000	26.777515 
333.000000	27.478615 
333.500000	28.717436 
334.000000	30.655595 
334.500000	33.126415 
335.000000	36.379786 
335.500000	39.985540 
336.000000	43.638525 
336.500000	47.723911 
337.000000	51.985548 
337.500000	55.900254 
338.000000	59.406937 
338.500000	62.317050 
339.000000	64.100990 
339.500000	65.324301 
340.000000	65.558216 
340.500000	64.682436 
341.000000	62.895908 
341.500000	60.603636 
342.000000	57.715153 
342.500000	54.615986 
343.000000	51.391406 
343.500000	47.573348 
344.000000	43.901130 
344.500000	40.376574 
345.000000	37.099465 
345.500000	33.899375 
346.000000	30.951050 
346.500000	28.129770 
347.000000	25.581225 
347.500000	23.168329 
348.000000	20.562111 
348.500000	17.967908 
349.000000	15.486400 
349.500000	13.220373 
350.000000	11.338119 
350.500000	9.748585  
351.000000	8.439704  
351.500000	7.537623  
352.000000	6.909132  
352.500000	6.478770  
353.000000	6.100391  
353.500000	5.810990  
354.000000	5.452195  
354.500000	5.074201  
355.000000	4.647419  
355.500000	4.246468  
356.000000	3.868916  
356.500000	3.598119  
357.000000	3.435962  
357.500000	3.284547  
358.000000	3.235157  
358.500000	3.231004  
359.000000	3.191329  
359.500000	3.028202  
360.000000	2.859473  
360.500000	2.598865  
361.000000	2.299309  
361.500000	2.074807  
362.000000	1.849404  
362.500000	1.766490  
363.000000	1.803843  
363.500000	1.877102  
364.000000	1.918306  
364.500000	1.963097  
365.000000	2.071301  
365.500000	2.115706  
366.000000	2.105068  
366.500000	1.974604  
367.000000	1.861927  
367.500000	1.902227  
368.000000	1.912486  
368.500000	1.902554  
369.000000	1.867075  
369.500000	1.961760  
370.000000	2.064519  
370.500000	2.084981  
371.000000	1.994302  
371.500000	1.798853  
372.000000	1.689966  
372.500000	1.584161  
373.000000	1.527273  
373.500000	1.512891  
374.000000	1.669450  
374.500000	1.891703  
375.000000	2.086611  
375.500000	2.238040  
376.000000	2.241253  
376.500000	2.211389  
377.000000	2.056505  
377.500000	1.861041  
378.000000	1.647179  
378.500000	1.546087  
379.000000	1.506351  
379.500000	1.492615  
380.000000	1.531718  
380.500000	1.567549  
381.000000	1.665761  
381.500000	1.715128  
382.000000	1.798008  
382.500000	1.831155  
383.000000	1.889245  
383.500000	1.985259  
384.000000	2.053599  
384.500000	2.121258  
385.000000	2.136764  
385.500000	2.149611  
386.000000	2.076296  
386.500000	1.980987  
387.000000	1.810316  
387.500000	1.600659  
388.000000	1.414348  
388.500000	1.208086  
389.000000	1.061560  
389.500000	1.000853  
390.000000	1.029526  
390.500000	1.117222  
391.000000	1.217080  
391.500000	1.319789  
392.000000	1.438434  
392.500000	1.489792  
393.000000	1.418552  
393.500000	1.292891  
394.000000	1.153223  
394.500000	1.010209  
395.000000	0.870342  
395.500000	0.693406  
396.000000	0.583380  
396.500000	0.581670  
397.000000	0.630098  
397.500000	0.680374  
398.000000	0.748323  
398.500000	0.823815  
399.000000	0.870879  
399.500000	0.849185  
400.000000	0.718112  
400.500000	0.577545  
401.000000	0.479767  
401.500000	0.401611  
402.000000	0.355326  
402.500000	0.335217  
403.000000	0.350084  
403.500000	0.404503  
404.000000	0.485556  
404.500000	0.534833  
405.000000	0.582160  
405.500000	0.627302  
406.000000	0.662597  
406.500000	0.713906  
407.000000	0.766353  
407.500000	0.751428  
408.000000	0.694023  
408.500000	0.662896  
409.000000	0.634737  
409.500000	0.595122  
410.000000	0.561468  
410.500000	0.514167  
411.000000	0.471359  
411.500000	0.459275  
412.000000	0.432812  
412.500000	0.352677  
413.000000	0.262277  
413.500000	0.224330  
414.000000	0.213554  
414.500000	0.236008  
415.000000	0.315149  
415.500000	0.403488  
416.000000	0.525346  
416.500000	0.670706  
417.000000	0.801427  
417.500000	0.878018  
418.000000	0.939700  
418.500000	0.947708  
419.000000	0.900614  
419.500000	0.858993  
420.000000	0.774497  
420.500000	0.660854  
421.000000	0.564730  
421.500000	0.503016  
422.000000	0.463089  
422.500000	0.452483  
423.000000	0.439577  
423.500000	0.425965  
424.000000	0.445502  
424.500000	0.449350  
425.000000	0.446038  
425.500000	0.444688  
426.000000	0.433645  
426.500000	0.429471  
427.000000	0.423494  
427.500000	0.407451  
428.000000	0.390324  
428.500000	0.396836  
429.000000	0.391320  
429.500000	0.377482  
430.000000	0.381851  
430.500000	0.390361  
431.000000	0.402430  
431.500000	0.400105  
432.000000	0.388891  
432.500000	0.381861  
433.000000	0.390519  
433.500000	0.391606  
434.000000	0.388983  
434.500000	0.387026  
435.000000	0.407260  
435.500000	0.435890  
436.000000	0.460624  
436.500000	0.485633  
437.000000	0.503988  
437.500000	0.516168  
438.000000	0.517292  
438.500000	0.533411  
439.000000	0.523781  
439.500000	0.492591  
440.000000	0.462245  
440.500000	0.435018  
441.000000	0.413895  
441.500000	0.405777  
442.000000	0.414546  
442.500000	0.419174  
443.000000	0.446714  
443.500000	0.472009  
444.000000	0.485856  
444.500000	0.489058  

