PE FL                   SPECTRUM    ASCII       PEDS        1.60        
  -1
PM6FC7~1
23/10/10
16:39:57.00
23/10/10
16:39:57.00


444.500000
1









LS55
30.00
5.00
5.00
SCAN
1
20
100
100
0
500
0
2
0
1
7
ON
500 450 
1 0 0
#HDR
-1
-1
#GR
NM

0.00002384185791015625
0.0
300.000000
0.500000
290
8
97.071927
-5.000000
#DATA
300.000000	-5.000000 
300.500000	-3.194876 
301.000000	-1.769497 
301.500000	-0.687383 
302.000000	-0.240768 
302.500000	-0.247413 
303.000000	-0.310681 
303.500000	-0.415077 
304.000000	-0.314903 
304.500000	-0.097467 
305.000000	0.178936  
305.500000	0.326600  
306.000000	0.512471  
306.500000	0.546921  
307.000000	0.806258  
307.500000	1.305003  
308.000000	1.990098  
308.500000	2.959818  
309.000000	4.052219  
309.500000	5.358897  
310.000000	6.795750  
310.500000	8.157690  
311.000000	9.172411  
311.500000	10.223644 
312.000000	11.313317 
312.500000	12.304755 
313.000000	13.280795 
313.500000	13.853907 
314.000000	14.221313 
314.500000	14.709652 
315.000000	15.151951 
315.500000	15.333742 
316.000000	15.577940 
316.500000	16.124831 
317.000000	16.903036 
317.500000	17.853881 
318.000000	18.569095 
318.500000	19.028392 
319.000000	19.434469 
319.500000	19.788654 
320.000000	20.046159 
320.500000	20.082687 
321.000000	20.211659 
321.500000	20.343793 
322.000000	20.664080 
322.500000	20.873738 
323.000000	21.112837 
323.500000	21.501576 
324.000000	21.911719 
324.500000	22.512511 
325.000000	22.917275 
325.500000	23.293866 
326.000000	23.650598 
326.500000	24.059008 
327.000000	24.282114 
327.500000	24.377353 
328.000000	24.670940 
328.500000	25.134179 
329.000000	26.247192 
329.500000	27.593209 
330.000000	29.027243 
330.500000	30.564206 
331.000000	32.289380 
331.500000	34.127480 
332.000000	35.752453 
332.500000	37.385670 
333.000000	39.336941 
333.500000	42.083580 
334.000000	45.669445 
334.500000	49.673411 
335.000000	54.173024 
335.500000	59.138001 
336.000000	64.743300 
336.500000	70.372441 
337.000000	75.585874 
337.500000	80.597883 
338.000000	85.403677 
338.500000	89.889352 
339.000000	93.362396 
339.500000	95.820433 
340.000000	97.034780 
340.500000	97.071927 
341.000000	95.938847 
341.500000	93.172357 
342.000000	89.500818 
342.500000	85.138171 
343.000000	80.458743 
343.500000	75.375865 
344.000000	70.288363 
344.500000	65.179961 
345.000000	60.350165 
345.500000	56.070584 
346.000000	51.733138 
346.500000	47.667950 
347.000000	43.908866 
347.500000	40.365995 
348.000000	36.741772 
348.500000	33.155749 
349.000000	29.370945 
349.500000	25.581914 
350.000000	22.054449 
350.500000	18.756439 
351.000000	15.820436 
351.500000	13.402198 
352.000000	11.609069 
352.500000	10.335424 
353.000000	9.489474  
353.500000	8.689550  
354.000000	8.089027  
354.500000	7.496158  
355.000000	6.893759  
355.500000	6.090171  
356.000000	5.254394  
356.500000	4.421421  
357.000000	3.649418  
357.500000	2.999081  
358.000000	2.405933  
358.500000	2.046681  
359.000000	1.794825  
359.500000	1.582246  
360.000000	1.338233  
360.500000	1.109818  
361.000000	0.788609  
361.500000	0.499691  
362.000000	0.364400  
362.500000	0.262202  
363.000000	0.355092  
363.500000	0.582052  
364.000000	0.815645  
364.500000	1.047918  
365.000000	1.221155  
365.500000	1.190281  
366.000000	1.029836  
366.500000	0.852559  
367.000000	0.600140  
367.500000	0.485131  
368.000000	0.479579  
368.500000	0.437773  
369.000000	0.507416  
369.500000	0.592849  
370.000000	0.547344  
370.500000	0.478402  
371.000000	0.368473  
371.500000	0.172026  
372.000000	0.083024  
372.500000	0.119337  
373.000000	0.159621  
373.500000	0.309659  
374.000000	0.527142  
374.500000	0.621588  
375.000000	0.698691  
375.500000	0.697232  
376.000000	0.559087  
376.500000	0.429835  
377.000000	0.371548  
377.500000	0.313395  
378.000000	0.285129  
378.500000	0.384591  
379.000000	0.464905  
379.500000	0.597082  
380.000000	0.740065  
380.500000	0.829146  
381.000000	0.909577  
381.500000	1.005256  
382.000000	1.048348  
382.500000	1.006612  
383.000000	0.963319  
383.500000	0.896580  
384.000000	0.839063  
384.500000	0.817241  
385.000000	0.809638  
385.500000	0.823170  
386.000000	0.926468  
386.500000	1.007992  
387.000000	1.066157  
387.500000	1.078745  
388.000000	1.017033  
388.500000	0.895900  
389.000000	0.766168  
389.500000	0.711771  
390.000000	0.639286  
390.500000	0.654457  
391.000000	0.718784  
391.500000	0.837971  
392.000000	0.927328  
392.500000	0.992460  
393.000000	1.017502  
393.500000	0.944790  
394.000000	0.879498  
394.500000	0.688984  
395.000000	0.466330  
395.500000	0.273200  
396.000000	0.151862  
396.500000	0.034435  
397.000000	0.001747  
397.500000	0.040137  
398.000000	0.103485  
398.500000	0.226797  
399.000000	0.314391  
399.500000	0.337325  
400.000000	0.371601  
400.500000	0.408096  
401.000000	0.395644  
401.500000	0.423834  
402.000000	0.480404  
402.500000	0.526447  
403.000000	0.571740  
403.500000	0.642364  
404.000000	0.683070  
404.500000	0.695506  
405.000000	0.692853  
405.500000	0.678601  
406.000000	0.712234  
406.500000	0.765755  
407.000000	0.800356  
407.500000	0.797796  
408.000000	0.814299  
408.500000	0.843513  
409.000000	0.863968  
409.500000	0.871569  
410.000000	0.854704  
410.500000	0.830202  
411.000000	0.836578  
411.500000	0.840598  
412.000000	0.827645  
412.500000	0.837443  
413.000000	0.872212  
413.500000	0.914162  
414.000000	0.975350  
414.500000	1.005960  
415.000000	0.995263  
415.500000	0.966400  
416.000000	0.915667  
416.500000	0.845536  
417.000000	0.784483  
417.500000	0.733479  
418.000000	0.695257  
418.500000	0.677209  
419.000000	0.660135  
419.500000	0.628157  
420.000000	0.600895  
420.500000	0.557781  
421.000000	0.504168  
421.500000	0.475327  
422.000000	0.491546  
422.500000	0.530253  
423.000000	0.571419  
423.500000	0.599352  
424.000000	0.610401  
424.500000	0.609530  
425.000000	0.591105  
425.500000	0.540723  
426.000000	0.499472  
426.500000	0.496804  
427.000000	0.541270  
427.500000	0.621137  
428.000000	0.686888  
428.500000	0.727162  
429.000000	0.750009  
429.500000	0.746377  
430.000000	0.686714  
430.500000	0.623924  
431.000000	0.570220  
431.500000	0.548123  
432.000000	0.570691  
432.500000	0.602820  
433.000000	0.638152  
433.500000	0.688799  
434.000000	0.722420  
434.500000	0.714250  
435.000000	0.711553  
435.500000	0.704195  
436.000000	0.696319  
436.500000	0.703472  
437.000000	0.715680  
437.500000	0.731521  
438.000000	0.747932  
438.500000	0.731522  
439.000000	0.686105  
439.500000	0.651447  
440.000000	0.637145  
440.500000	0.628272  
441.000000	0.628621  
441.500000	0.645514  
442.000000	0.676397  
442.500000	0.717854  
443.000000	0.733271  
443.500000	0.723661  
444.000000	0.708801  
444.500000	0.701002  

