PE FL                   SPECTRUM    ASCII       PEDS        1.60        
  -1
PM3FC7~1
23/10/10
16:38:15.00
23/10/10
16:38:15.00


444.500000
1









LS55
15.00
5.00
5.00
SCAN
1
20
100
100
0
500
0
2
0
1
7
ON
500 450 
1 0 0
#HDR
-1
-1
#GR
NM

0.00002384185791015625
0.0
300.000000
0.500000
290
8
103.792439
-3.253022
#DATA
300.000000	6.629999   
300.500000	3.631036   
301.000000	0.888694   
301.500000	-1.072197  
302.000000	-2.330318  
302.500000	-3.056821  
303.000000	-3.253022  
303.500000	-3.158136  
304.000000	-3.147620  
304.500000	-3.062971  
305.000000	-3.061321  
305.500000	-3.226858  
306.000000	-3.105403  
306.500000	-2.804635  
307.000000	-2.446336  
307.500000	-2.077176  
308.000000	-1.658156  
308.500000	-1.463741  
309.000000	-1.122478  
309.500000	-0.960861  
310.000000	-0.966482  
310.500000	-0.877062  
311.000000	-0.815496  
311.500000	-0.833631  
312.000000	-0.918008  
312.500000	-0.944765  
313.000000	-1.031912  
313.500000	-0.885808  
314.000000	-0.944962  
314.500000	-0.982879  
315.000000	-0.839219  
315.500000	-0.735600  
316.000000	-0.689941  
316.500000	-0.839272  
317.000000	-0.965688  
317.500000	-1.066329  
318.000000	-1.006810  
318.500000	-1.032422  
319.000000	-0.992666  
319.500000	-0.723617  
320.000000	-0.487437  
320.500000	-0.246757  
321.000000	-0.034657  
321.500000	0.109527   
322.000000	0.176159   
322.500000	0.382506   
323.000000	0.792159   
323.500000	1.419885   
324.000000	2.284322   
324.500000	3.238465   
325.000000	4.385376   
325.500000	5.600522   
326.000000	6.801427   
326.500000	7.747616   
327.000000	8.538925   
327.500000	9.425380   
328.000000	10.327700  
328.500000	11.053274  
329.000000	11.542351  
329.500000	12.079364  
330.000000	12.764914  
330.500000	13.541940  
331.000000	14.635069  
331.500000	15.969077  
332.000000	17.920715  
332.500000	20.776396  
333.000000	24.043465  
333.500000	27.584106  
334.000000	31.828465  
334.500000	36.400616  
335.000000	41.231672  
335.500000	47.010438  
336.000000	53.522831  
336.500000	60.471248  
337.000000	67.746842  
337.500000	75.387420  
338.000000	82.674684  
338.500000	89.693041  
339.000000	95.537059  
339.500000	99.682423  
340.000000	102.340437 
340.500000	103.754918 
341.000000	103.792439 
341.500000	102.184539 
342.000000	99.952717  
342.500000	96.863082  
343.000000	93.512736  
343.500000	89.898919  
344.000000	85.943629  
344.500000	81.339070  
345.000000	76.617484  
345.500000	71.969636  
346.000000	66.409766  
346.500000	60.854671  
347.000000	55.045508  
347.500000	49.302262  
348.000000	43.944967  
348.500000	39.319045  
349.000000	35.030495  
349.500000	31.182940  
350.000000	28.026058  
350.500000	24.978177  
351.000000	22.311220  
351.500000	19.755460  
352.000000	17.297665  
352.500000	15.000759  
353.000000	12.970374  
353.500000	11.077578  
354.000000	9.391314   
354.500000	8.270984   
355.000000	7.449265   
355.500000	6.886312   
356.000000	6.363626   
356.500000	5.983193   
357.000000	5.576471   
357.500000	5.131529   
358.000000	4.680178   
358.500000	4.142120   
359.000000	3.656479   
359.500000	3.253450   
360.000000	2.978106   
360.500000	2.767264   
361.000000	2.605844   
361.500000	2.469498   
362.000000	2.361379   
362.500000	2.270231   
363.000000	2.094546   
363.500000	1.870941   
364.000000	1.625397   
364.500000	1.397029   
365.000000	1.288156   
365.500000	1.189370   
366.000000	1.155237   
366.500000	1.123778   
367.000000	1.102239   
367.500000	1.189883   
368.000000	1.325529   
368.500000	1.439961   
369.000000	1.457475   
369.500000	1.519140   
370.000000	1.487759   
370.500000	1.440142   
371.000000	1.356081   
371.500000	1.159033   
372.000000	0.968513   
372.500000	0.954689   
373.000000	1.006820   
373.500000	1.065194   
374.000000	1.186542   
374.500000	1.281535   
375.000000	1.401967   
375.500000	1.570339   
376.000000	1.665483   
376.500000	1.639139   
377.000000	1.698596   
377.500000	1.750896   
378.000000	1.813200   
378.500000	1.893809   
379.000000	1.891284   
379.500000	1.854412   
380.000000	1.846569   
380.500000	1.854661   
381.000000	1.752088   
381.500000	1.694021   
382.000000	1.681557   
382.500000	1.701897   
383.000000	1.751868   
383.500000	1.685148   
384.000000	1.580449   
384.500000	1.428351   
385.000000	1.260238   
385.500000	1.046232   
386.000000	0.826750   
386.500000	0.730633   
387.000000	0.790163   
387.500000	0.983695   
388.000000	1.182362   
388.500000	1.434459   
389.000000	1.603387   
389.500000	1.748377   
390.000000	1.766648   
390.500000	1.613940   
391.000000	1.400735   
391.500000	1.215287   
392.000000	1.082631   
392.500000	0.999170   
393.000000	0.968470   
393.500000	0.898751   
394.000000	0.902546   
394.500000	0.975709   
395.000000	1.024232   
395.500000	1.040940   
396.000000	1.086020   
396.500000	1.136497   
397.000000	1.224367   
397.500000	1.296780   
398.000000	1.266239   
398.500000	1.186682   
399.000000	1.134522   
399.500000	1.058935   
400.000000	0.967445   
400.500000	0.910383   
401.000000	0.870828   
401.500000	0.906794   
402.000000	1.001993   
402.500000	1.108158   
403.000000	1.176914   
403.500000	1.260260   
404.000000	1.302457   
404.500000	1.314285   
405.000000	1.348909   
405.500000	1.364240   
406.000000	1.354822   
406.500000	1.325347   
407.000000	1.277207   
407.500000	1.239008   
408.000000	1.224605   
408.500000	1.184216   
409.000000	1.147932   
409.500000	1.167679   
410.000000	1.229086   
410.500000	1.332722   
411.000000	1.419033   
411.500000	1.469129   
412.000000	1.528405   
412.500000	1.560724   
413.000000	1.557018   
413.500000	1.499105   
414.000000	1.401789   
414.500000	1.315598   
415.000000	1.290911   
415.500000	1.275137   
416.000000	1.252402   
416.500000	1.269463   
417.000000	1.297536   
417.500000	1.357539   
418.000000	1.433222   
418.500000	1.493233   
419.000000	1.539532   
419.500000	1.590521   
420.000000	1.638991   
420.500000	1.647164   
421.000000	1.630386   
421.500000	1.559091   
422.000000	1.462949   
422.500000	1.360140   
423.000000	1.260488   
423.500000	1.167785   
424.000000	1.082196   
424.500000	1.032997   
425.000000	0.995080   
425.500000	0.966920   
426.000000	0.945525   
426.500000	0.921765   
427.000000	0.895704   
427.500000	0.889802   
428.000000	0.911119   
428.500000	0.938915   
429.000000	0.991323   
429.500000	1.024249   
430.000000	1.066769   
430.500000	1.121312   
431.000000	1.164621   
431.500000	1.189047   
432.000000	1.205299   
432.500000	1.223842   
433.000000	1.244567   
433.500000	1.254420   
434.000000	1.222607   
434.500000	1.182698   
435.000000	1.141811   
435.500000	1.103721   
436.000000	1.069494   
436.500000	1.045524   
437.000000	1.040103   
437.500000	1.067753   
438.000000	1.105633   
438.500000	1.124157   
439.000000	1.143516   
439.500000	1.156971   
440.000000	1.157402   
440.500000	1.151092   
441.000000	1.135210   
441.500000	1.109437   
442.000000	1.117815   
442.500000	1.123383   
443.000000	1.117736   
443.500000	1.114022   
444.000000	1.125002   
444.500000	1.121822   

