PE FL                   SPECTRUM    ASCII       PEDS        1.60        
  -1
PM5FC7~1
23/10/10
16:39:23.00
23/10/10
16:39:23.00


444.500000
1









LS55
25.00
5.00
5.00
SCAN
1
20
100
100
0
500
0
2
0
1
7
ON
500 450 
1 0 0
#HDR
-1
-1
#GR
NM

0.00002384185791015625
0.0
300.000000
0.500000
290
8
102.059090
-5.000000
#DATA
300.000000	-5.000000  
300.500000	-4.119573  
301.000000	-3.135586  
301.500000	-2.204050  
302.000000	-1.475764  
302.500000	-1.025292  
303.000000	-0.634058  
303.500000	-0.370797  
304.000000	-0.225811  
304.500000	-0.590753  
305.000000	-1.159311  
305.500000	-1.650291  
306.000000	-1.797323  
306.500000	-1.758330  
307.000000	-1.688117  
307.500000	-1.231263  
308.000000	-0.802259  
308.500000	-0.185819  
309.000000	-0.016592  
309.500000	-0.405100  
310.000000	-0.950898  
310.500000	-1.438753  
311.000000	-1.606911  
311.500000	-1.552692  
312.000000	-1.016732  
312.500000	-0.002786  
313.000000	1.537513   
313.500000	3.308135   
314.000000	4.710893   
314.500000	5.917867   
315.000000	6.876354   
315.500000	7.533421   
316.000000	7.978515   
316.500000	8.247099   
317.000000	8.658852   
317.500000	9.215690   
318.000000	10.282740  
318.500000	11.449071  
319.000000	12.691073  
319.500000	13.944547  
320.000000	14.986410  
320.500000	15.660441  
321.000000	15.814707  
321.500000	15.766982  
322.000000	15.474443  
322.500000	15.733470  
323.000000	16.341223  
323.500000	17.076246  
324.000000	18.146275  
324.500000	19.577444  
325.000000	20.735367  
325.500000	21.684404  
326.000000	22.409827  
326.500000	22.629834  
327.000000	22.882037  
327.500000	23.154218  
328.000000	23.418976  
328.500000	23.916403  
329.000000	25.080856  
329.500000	26.011307  
330.000000	27.067974  
330.500000	28.319204  
331.000000	29.543212  
331.500000	30.853705  
332.000000	32.235475  
332.500000	34.137236  
333.000000	36.547327  
333.500000	39.934196  
334.000000	43.663667  
334.500000	48.057129  
335.000000	53.343758  
335.500000	59.332778  
336.000000	65.754883  
336.500000	72.039833  
337.000000	78.476593  
337.500000	84.523194  
338.000000	90.107698  
338.500000	94.756785  
339.000000	98.245653  
339.500000	100.665131 
340.000000	101.847283 
340.500000	102.059090 
341.000000	100.898756 
341.500000	98.743173  
342.000000	95.791479  
342.500000	92.138440  
343.000000	87.703823  
343.500000	82.683384  
344.000000	77.289472  
344.500000	71.564027  
345.000000	66.117233  
345.500000	60.712236  
346.000000	55.347280  
346.500000	50.331791  
347.000000	45.768356  
347.500000	41.425494  
348.000000	37.396840  
348.500000	33.623440  
349.000000	29.998613  
349.500000	26.721103  
350.000000	23.528116  
350.500000	20.288166  
351.000000	17.379358  
351.500000	14.909778  
352.000000	12.779682  
352.500000	11.073452  
353.000000	9.722127   
353.500000	8.681784   
354.000000	8.002794   
354.500000	7.411229   
355.000000	6.816522   
355.500000	6.154675   
356.000000	5.372773   
356.500000	4.556941   
357.000000	3.806020   
357.500000	3.121554   
358.000000	2.513658   
358.500000	2.107042   
359.000000	1.953162   
359.500000	1.957016   
360.000000	2.054715   
360.500000	2.259795   
361.000000	2.405682   
361.500000	2.474077   
362.000000	2.397522   
362.500000	2.109766   
363.000000	1.598982   
363.500000	1.122653   
364.000000	0.719341   
364.500000	0.329476   
365.000000	0.253007   
365.500000	0.368914   
366.000000	0.649202   
366.500000	1.035591   
367.000000	1.406861   
367.500000	1.610592   
368.000000	1.726768   
368.500000	1.768281   
369.000000	1.628334   
369.500000	1.469651   
370.000000	1.257864   
370.500000	1.120919   
371.000000	1.086165   
371.500000	1.135611   
372.000000	1.147564   
372.500000	1.180129   
373.000000	1.271408   
373.500000	1.352646   
374.000000	1.371899   
374.500000	1.251269   
375.000000	1.069760   
375.500000	0.901315   
376.000000	0.786754   
376.500000	0.688113   
377.000000	0.694100   
377.500000	0.769914   
378.000000	0.982784   
378.500000	1.227275   
379.000000	1.483372   
379.500000	1.660445   
380.000000	1.758761   
380.500000	1.777741   
381.000000	1.678713   
381.500000	1.548268   
382.000000	1.393524   
382.500000	1.259065   
383.000000	1.096221   
383.500000	1.003500   
384.000000	0.931572   
384.500000	0.896239   
385.000000	0.872012   
385.500000	0.839432   
386.000000	0.816140   
386.500000	0.776990   
387.000000	0.723647   
387.500000	0.623162   
388.000000	0.553016   
388.500000	0.514239   
389.000000	0.526633   
389.500000	0.600972   
390.000000	0.683197   
390.500000	0.797038   
391.000000	0.923902   
391.500000	1.028153   
392.000000	1.072008   
392.500000	1.057496   
393.000000	1.023953   
393.500000	0.958410   
394.000000	0.865858   
394.500000	0.726061   
395.000000	0.633326   
395.500000	0.596474   
396.000000	0.621172   
396.500000	0.712699   
397.000000	0.846809   
397.500000	0.989035   
398.000000	1.094323   
398.500000	1.137987   
399.000000	1.116227   
399.500000	1.055701   
400.000000	0.922056   
400.500000	0.782715   
401.000000	0.670899   
401.500000	0.628516   
402.000000	0.620424   
402.500000	0.637758   
403.000000	0.644192   
403.500000	0.665898   
404.000000	0.705407   
404.500000	0.726675   
405.000000	0.740336   
405.500000	0.740851   
406.000000	0.812059   
406.500000	0.888379   
407.000000	0.943096   
407.500000	0.980077   
408.000000	1.003179   
408.500000	0.985109   
409.000000	0.966282   
409.500000	0.953311   
410.000000	0.912840   
410.500000	0.923009   
411.000000	0.943855   
411.500000	0.936788   
412.000000	0.985672   
412.500000	1.031474   
413.000000	1.043911   
413.500000	1.038282   
414.000000	1.039771   
414.500000	1.001005   
415.000000	0.972170   
415.500000	0.945380   
416.000000	0.869497   
416.500000	0.851144   
417.000000	0.836782   
417.500000	0.856339   
418.000000	0.885091   
418.500000	0.945209   
419.000000	0.982366   
419.500000	1.004760   
420.000000	1.011474   
420.500000	0.967605   
421.000000	0.938997   
421.500000	0.879280   
422.000000	0.820595   
422.500000	0.793859   
423.000000	0.816208   
423.500000	0.859470   
424.000000	0.908913   
424.500000	0.944070   
425.000000	0.924516   
425.500000	0.888846   
426.000000	0.827809   
426.500000	0.732194   
427.000000	0.651988   
427.500000	0.592371   
428.000000	0.589544   
428.500000	0.627829   
429.000000	0.697493   
429.500000	0.757579   
430.000000	0.793973   
430.500000	0.821715   
431.000000	0.813115   
431.500000	0.776776   
432.000000	0.710592   
432.500000	0.649547   
433.000000	0.597861   
433.500000	0.575875   
434.000000	0.585538   
434.500000	0.593752   
435.000000	0.608706   
435.500000	0.625901   
436.000000	0.636772   
436.500000	0.633105   
437.000000	0.625003   
437.500000	0.607273   
438.000000	0.584973   
438.500000	0.581184   
439.000000	0.591632   
439.500000	0.614420   
440.000000	0.653109   
440.500000	0.695442   
441.000000	0.741292   
441.500000	0.762905   
442.000000	0.778178   
442.500000	0.774727   
443.000000	0.753919   
443.500000	0.726063   
444.000000	0.685756   
444.500000	0.643304   

