PE FL                   SPECTRUM    ASCII       PEDS        1.60        
  -1
PM2A7E~1
23/10/12
11:53:45.00
23/10/12
11:53:45.00


444.500000
1









LS55
40.00
5.00
5.00
SCAN
1
20
100
500
0
500
0
2
0
1
7
ON
500 450 
1 0 0
#HDR
-1
-1
#GR
NM

0.00002384185791015625
0.0
250.000000
0.500000
390
8
6.721376
-3.364095
#DATA
250.000000	2.788000  
250.500000	1.365322  
251.000000	0.544495  
251.500000	-0.147834 
252.000000	-0.708418 
252.500000	-1.535496 
253.000000	-2.068495 
253.500000	-2.544288 
254.000000	-2.696555 
254.500000	-3.092676 
255.000000	-3.318857 
255.500000	-3.211309 
256.000000	-2.918265 
256.500000	-2.438772 
257.000000	-2.153786 
257.500000	-2.094251 
258.000000	-2.336482 
258.500000	-2.513168 
259.000000	-2.898744 
259.500000	-3.227326 
260.000000	-3.364095 
260.500000	-3.350618 
261.000000	-3.154045 
261.500000	-2.791541 
262.000000	-2.540300 
262.500000	-2.420563 
263.000000	-2.348478 
263.500000	-2.398013 
264.000000	-2.648902 
264.500000	-3.029965 
265.000000	-3.046324 
265.500000	-2.709122 
266.000000	-2.081296 
266.500000	-1.602524 
267.000000	-1.063417 
267.500000	-0.517351 
268.000000	-0.239634 
268.500000	-0.533078 
269.000000	-1.526050 
269.500000	-2.455041 
270.000000	-3.071979 
270.500000	-3.292589 
271.000000	-3.324696 
271.500000	-2.947253 
272.000000	-1.987629 
272.500000	-0.850645 
273.000000	0.114423  
273.500000	0.572528  
274.000000	0.912710  
274.500000	1.099958  
275.000000	0.993753  
275.500000	0.588495  
276.000000	0.088251  
276.500000	-0.274065 
277.000000	-1.088213 
277.500000	-1.677633 
278.000000	-2.047789 
278.500000	-1.811373 
279.000000	-1.102820 
279.500000	-0.080516 
280.000000	0.903045  
280.500000	2.046567  
281.000000	3.361107  
281.500000	3.731153  
282.000000	3.633765  
282.500000	2.976600  
283.000000	2.137312  
283.500000	1.238177  
284.000000	0.305938  
284.500000	-0.711029 
285.000000	-1.342539 
285.500000	-1.263849 
286.000000	-1.097331 
286.500000	-0.771224 
287.000000	-0.541143 
287.500000	-0.402042 
288.000000	-0.100287 
288.500000	0.197620  
289.000000	0.337459  
289.500000	0.335950  
290.000000	0.271362  
290.500000	0.407908  
291.000000	0.477559  
291.500000	0.409837  
292.000000	-0.166939 
292.500000	-0.661983 
293.000000	-1.138698 
293.500000	-1.755405 
294.000000	-2.157325 
294.500000	-2.556176 
295.000000	-2.461030 
295.500000	-2.039353 
296.000000	-1.220586 
296.500000	-0.580084 
297.000000	0.036585  
297.500000	0.815510  
298.000000	1.171608  
298.500000	1.601696  
299.000000	1.738493  
299.500000	1.754447  
300.000000	1.895216  
300.500000	2.450935  
301.000000	3.178986  
301.500000	3.535711  
302.000000	4.072882  
302.500000	4.111208  
303.000000	3.983878  
303.500000	3.644060  
304.000000	3.041685  
304.500000	2.612885  
305.000000	2.616773  
305.500000	3.239714  
306.000000	3.577794  
306.500000	4.042273  
307.000000	4.289360  
307.500000	4.241331  
308.000000	3.987725  
308.500000	3.354739  
309.000000	2.862895  
309.500000	2.583441  
310.000000	3.099716  
310.500000	3.675211  
311.000000	4.399751  
311.500000	5.324346  
312.000000	6.078770  
312.500000	6.363685  
313.000000	6.338004  
313.500000	6.285265  
314.000000	5.975750  
314.500000	5.918025  
315.000000	5.814898  
315.500000	5.500254  
316.000000	5.331418  
316.500000	5.277185  
317.000000	5.161734  
317.500000	4.902958  
318.000000	4.919917  
318.500000	5.032572  
319.000000	5.492838  
319.500000	6.126459  
320.000000	6.569196  
320.500000	6.721376  
321.000000	6.686717  
321.500000	6.483276  
322.000000	5.860074  
322.500000	5.237668  
323.000000	4.578125  
323.500000	4.227181  
324.000000	4.205819  
324.500000	4.446785  
325.000000	4.572605  
325.500000	4.662944  
326.000000	4.943478  
326.500000	5.130885  
327.000000	5.292171  
327.500000	5.314178  
328.000000	5.250529  
328.500000	5.195842  
329.000000	5.271690  
329.500000	5.187945  
330.000000	4.871118  
330.500000	4.554606  
331.000000	4.280828  
331.500000	4.137961  
332.000000	4.142891  
332.500000	4.077369  
333.000000	4.005031  
333.500000	4.077382  
334.000000	4.147263  
334.500000	3.946844  
335.000000	3.773590  
335.500000	3.614586  
336.000000	3.514189  
336.500000	3.706690  
337.000000	3.853944  
337.500000	3.923382  
338.000000	3.985977  
338.500000	4.130316  
339.000000	4.034004  
339.500000	3.956032  
340.000000	3.669355  
340.500000	3.274465  
341.000000	3.089643  
341.500000	3.001528  
342.000000	3.037914  
342.500000	3.143467  
343.000000	3.421361  
343.500000	3.649184  
344.000000	4.042833  
344.500000	4.306233  
345.000000	4.398857  
345.500000	4.358500  
346.000000	4.121472  
346.500000	3.902693  
347.000000	3.658422  
347.500000	3.481104  
348.000000	3.307943  
348.500000	3.301210  
349.000000	3.456183  
349.500000	3.666637  
350.000000	3.839282  
350.500000	3.748440  
351.000000	3.545340  
351.500000	3.366218  
352.000000	3.181134  
352.500000	2.989603  
353.000000	2.771786  
353.500000	2.724602  
354.000000	2.923818  
354.500000	3.269422  
355.000000	3.595347  
355.500000	3.814028  
356.000000	4.059078  
356.500000	4.256513  
357.000000	4.289926  
357.500000	4.103462  
358.000000	3.865555  
358.500000	3.703021  
359.000000	3.620532  
359.500000	3.600787  
360.000000	3.624632  
360.500000	3.728602  
361.000000	3.973948  
361.500000	4.225922  
362.000000	4.309747  
362.500000	4.210982  
363.000000	4.033776  
363.500000	3.807636  
364.000000	3.594873  
364.500000	3.338488  
365.000000	3.150943  
365.500000	3.085676  
366.000000	3.091957  
366.500000	3.070785  
367.000000	3.010053  
367.500000	2.940926  
368.000000	2.800440  
368.500000	2.718117  
369.000000	2.587779  
369.500000	2.579608  
370.000000	2.569584  
370.500000	2.614606  
371.000000	2.677489  
371.500000	2.775944  
372.000000	3.005113  
372.500000	3.146639  
373.000000	3.315844  
373.500000	3.363741  
374.000000	3.500438  
374.500000	3.559569  
375.000000	3.509498  
375.500000	3.353098  
376.000000	3.142222  
376.500000	3.074940  
377.000000	3.025846  
377.500000	3.053532  
378.000000	3.104706  
378.500000	3.248672  
379.000000	3.373262  
379.500000	3.468355  
380.000000	3.489471  
380.500000	3.378093  
381.000000	3.250458  
381.500000	3.124963  
382.000000	3.060057  
382.500000	3.005326  
383.000000	2.973924  
383.500000	2.943869  
384.000000	2.892082  
384.500000	2.858155  
385.000000	2.816486  
385.500000	2.734312  
386.000000	2.667161  
386.500000	2.649921  
387.000000	2.619459  
387.500000	2.642993  
388.000000	2.674516  
388.500000	2.644996  
389.000000	2.605585  
389.500000	2.583535  
390.000000	2.525455  
390.500000	2.508528  
391.000000	2.536124  
391.500000	2.557360  
392.000000	2.627566  
392.500000	2.732104  
393.000000	2.798014  
393.500000	2.808772  
394.000000	2.794834  
394.500000	2.705679  
395.000000	2.603822  
395.500000	2.500043  
396.000000	2.413242  
396.500000	2.341355  
397.000000	2.308546  
397.500000	2.337257  
398.000000	2.382897  
398.500000	2.464752  
399.000000	2.490486  
399.500000	2.490885  
400.000000	2.467069  
400.500000	2.445861  
401.000000	2.337664  
401.500000	2.177807  
402.000000	2.088467  
402.500000	2.021096  
403.000000	2.010514  
403.500000	1.999880  
404.000000	2.021873  
404.500000	2.081178  
405.000000	2.199963  
405.500000	2.297558  
406.000000	2.362887  
406.500000	2.462066  
407.000000	2.521890  
407.500000	2.531976  
408.000000	2.486033  
408.500000	2.390506  
409.000000	2.275345  
409.500000	2.223551  
410.000000	2.188256  
410.500000	2.181311  
411.000000	2.182992  
411.500000	2.170199  
412.000000	2.127687  
412.500000	2.083114  
413.000000	2.022083  
413.500000	1.903933  
414.000000	1.851354  
414.500000	1.841533  
415.000000	1.897853  
415.500000	1.930912  
416.000000	1.955969  
416.500000	1.953984  
417.000000	1.953261  
417.500000	1.936910  
418.000000	1.854072  
418.500000	1.801561  
419.000000	1.786759  
419.500000	1.836158  
420.000000	1.876275  
420.500000	1.888783  
421.000000	1.878541  
421.500000	1.862801  
422.000000	1.851818  
422.500000	1.822830  
423.000000	1.767336  
423.500000	1.731859  
424.000000	1.719861  
424.500000	1.722751  
425.000000	1.717238  
425.500000	1.688689  
426.000000	1.645142  
426.500000	1.596408  
427.000000	1.536583  
427.500000	1.450683  
428.000000	1.374238  
428.500000	1.309004  
429.000000	1.288218  
429.500000	1.296634  
430.000000	1.325893  
430.500000	1.368396  
431.000000	1.428465  
431.500000	1.484000  
432.000000	1.517107  
432.500000	1.546936  
433.000000	1.550083  
433.500000	1.535175  
434.000000	1.500335  
434.500000	1.445698  
435.000000	1.373110  
435.500000	1.301279  
436.000000	1.225013  
436.500000	1.149706  
437.000000	1.104471  
437.500000	1.084032  
438.000000	1.086911  
438.500000	1.119921  
439.000000	1.175185  
439.500000	1.226543  
440.000000	1.271472  
440.500000	1.307363  
441.000000	1.335621  
441.500000	1.372301  
442.000000	1.398821  
442.500000	1.386420  
443.000000	1.370150  
443.500000	1.350502  
444.000000	1.308354  
444.500000	1.243530  

