PE FL                   SPECTRUM    ASCII       PEDS        1.60        
  -1
PM2A2E~1
23/10/12
11:50:23.00
23/10/12
11:50:23.00


444.500000
1









LS55
15.00
5.00
5.00
SCAN
1
20
100
500
0
500
0
2
0
1
7
ON
500 450 
1 0 0
#HDR
-1
-1
#GR
NM

0.00002384185791015625
0.0
250.000000
0.500000
390
8
4.201154
-5.000000
#DATA
250.000000	-5.000000 
250.500000	-4.370306 
251.000000	-3.877164 
251.500000	-3.296340 
252.000000	-2.880874 
252.500000	-2.419364 
253.000000	-2.425666 
253.500000	-2.274409 
254.000000	-1.852090 
254.500000	-1.275087 
255.000000	-0.887420 
255.500000	-0.876175 
256.000000	-0.746654 
256.500000	-0.610348 
257.000000	-0.821142 
257.500000	-1.526574 
258.000000	-2.384751 
258.500000	-3.042327 
259.000000	-3.460694 
259.500000	-3.704450 
260.000000	-4.060133 
260.500000	-4.165519 
261.000000	-3.955678 
261.500000	-4.073674 
262.000000	-4.159331 
262.500000	-4.428731 
263.000000	-4.392661 
263.500000	-4.210527 
264.000000	-3.816300 
264.500000	-3.340842 
265.000000	-2.768784 
265.500000	-2.149300 
266.000000	-2.042975 
266.500000	-2.158453 
267.000000	-2.718825 
267.500000	-3.241996 
268.000000	-3.782782 
268.500000	-4.390042 
269.000000	-4.723811 
269.500000	-4.776050 
270.000000	-4.652032 
270.500000	-4.354987 
271.000000	-3.852210 
271.500000	-3.474040 
272.000000	-3.037608 
272.500000	-2.824029 
273.000000	-2.768806 
273.500000	-2.727643 
274.000000	-2.605094 
274.500000	-2.757569 
275.000000	-2.558600 
275.500000	-2.148983 
276.000000	-1.376983 
276.500000	-0.473611 
277.000000	0.151681  
277.500000	0.649958  
278.000000	0.911885  
278.500000	1.050584  
279.000000	0.621444  
279.500000	0.269915  
280.000000	-0.288987 
280.500000	-0.486843 
281.000000	-0.466034 
281.500000	-0.683717 
282.000000	-0.542473 
282.500000	-0.373195 
283.000000	0.072726  
283.500000	0.401982  
284.000000	1.057566  
284.500000	1.361380  
285.000000	1.672397  
285.500000	1.925995  
286.000000	1.699610  
286.500000	1.207124  
287.000000	0.326777  
287.500000	-0.496201 
288.000000	-1.302274 
288.500000	-1.717638 
289.000000	-2.087541 
289.500000	-2.074194 
290.000000	-1.559465 
290.500000	-1.064769 
291.000000	-0.556801 
291.500000	-0.476724 
292.000000	-0.321626 
292.500000	-0.174512 
293.000000	-0.103785 
293.500000	-0.371383 
294.000000	-0.626569 
294.500000	-0.751672 
295.000000	-0.835396 
295.500000	-0.921154 
296.000000	-1.577229 
296.500000	-2.178108 
297.000000	-2.591105 
297.500000	-2.755129 
298.000000	-2.860272 
298.500000	-2.790639 
299.000000	-2.457248 
299.500000	-1.838285 
300.000000	-1.084051 
300.500000	-0.913923 
301.000000	-0.969356 
301.500000	-1.278783 
302.000000	-1.623687 
302.500000	-1.706121 
303.000000	-1.674286 
303.500000	-1.485507 
304.000000	-0.919693 
304.500000	-0.218739 
305.000000	0.233127  
305.500000	0.435335  
306.000000	0.161135  
306.500000	-0.373399 
307.000000	-0.902421 
307.500000	-1.317718 
308.000000	-1.599760 
308.500000	-1.376327 
309.000000	-0.634470 
309.500000	0.578058  
310.000000	1.729270  
310.500000	2.624277  
311.000000	3.285688  
311.500000	3.541670  
312.000000	3.397291  
312.500000	2.736151  
313.000000	1.912850  
313.500000	1.197612  
314.000000	1.084624  
314.500000	1.171959  
315.000000	1.419326  
315.500000	1.963182  
316.000000	2.757529  
316.500000	3.634580  
317.000000	4.153519  
317.500000	4.201154  
318.000000	4.047204  
318.500000	3.881990  
319.000000	3.473554  
319.500000	3.019420  
320.000000	2.518192  
320.500000	2.314942  
321.000000	2.237896  
321.500000	2.235695  
322.000000	2.062021  
322.500000	2.146187  
323.000000	2.296812  
323.500000	2.423777  
324.000000	2.510972  
324.500000	2.465788  
325.000000	2.542086  
325.500000	2.500780  
326.000000	2.473359  
326.500000	2.101606  
327.000000	1.928064  
327.500000	1.893244  
328.000000	1.981695  
328.500000	2.068658  
329.000000	2.199124  
329.500000	2.640411  
330.000000	2.940452  
330.500000	3.282192  
331.000000	3.382594  
331.500000	3.331244  
332.000000	3.259431  
332.500000	3.143878  
333.000000	2.933188  
333.500000	2.627275  
334.000000	2.546921  
334.500000	2.446375  
335.000000	2.531542  
335.500000	2.507270  
336.000000	2.387692  
336.500000	2.311357  
337.000000	2.287995  
337.500000	2.225163  
338.000000	1.984675  
338.500000	1.794850  
339.000000	1.599570  
339.500000	1.596904  
340.000000	1.550085  
340.500000	1.520740  
341.000000	1.536675  
341.500000	1.641245  
342.000000	1.766145  
342.500000	1.808930  
343.000000	1.842495  
343.500000	1.914988  
344.000000	2.011947  
344.500000	2.031620  
345.000000	2.087832  
345.500000	2.080277  
346.000000	2.100908  
346.500000	2.004414  
347.000000	1.800117  
347.500000	1.624860  
348.000000	1.512468  
348.500000	1.342566  
349.000000	0.996397  
349.500000	0.663935  
350.000000	0.467590  
350.500000	0.428222  
351.000000	0.448430  
351.500000	0.458408  
352.000000	0.611113  
352.500000	0.911328  
353.000000	1.292595  
353.500000	1.543735  
354.000000	1.731864  
354.500000	1.760150  
355.000000	1.749625  
355.500000	1.678052  
356.000000	1.482741  
356.500000	1.333470  
357.000000	1.226671  
357.500000	1.278501  
358.000000	1.399585  
358.500000	1.710496  
359.000000	1.962405  
359.500000	2.264208  
360.000000	2.526662  
360.500000	2.688716  
361.000000	2.769950  
361.500000	2.710837  
362.000000	2.544634  
362.500000	2.225454  
363.000000	1.974677  
363.500000	1.683195  
364.000000	1.550059  
364.500000	1.502312  
365.000000	1.536250  
365.500000	1.693073  
366.000000	1.975170  
366.500000	2.393585  
367.000000	2.750304  
367.500000	2.912626  
368.000000	2.863080  
368.500000	2.740869  
369.000000	2.531074  
369.500000	2.196648  
370.000000	1.777067  
370.500000	1.380929  
371.000000	1.170932  
371.500000	1.183066  
372.000000	1.209941  
372.500000	1.264864  
373.000000	1.436411  
373.500000	1.700118  
374.000000	1.951391  
374.500000	2.067201  
375.000000	2.044943  
375.500000	1.944781  
376.000000	1.876445  
376.500000	1.723563  
377.000000	1.587574  
377.500000	1.405328  
378.000000	1.278793  
378.500000	1.250718  
379.000000	1.309112  
379.500000	1.377116  
380.000000	1.435983  
380.500000	1.482224  
381.000000	1.456834  
381.500000	1.526028  
382.000000	1.476868  
382.500000	1.362315  
383.000000	1.262343  
383.500000	1.222411  
384.000000	1.241935  
384.500000	1.294847  
385.000000	1.323466  
385.500000	1.345354  
386.000000	1.521809  
386.500000	1.594833  
387.000000	1.616467  
387.500000	1.566222  
388.000000	1.500882  
388.500000	1.450867  
389.000000	1.468787  
389.500000	1.469607  
390.000000	1.478695  
390.500000	1.550645  
391.000000	1.537922  
391.500000	1.527580  
392.000000	1.515918  
392.500000	1.458436  
393.000000	1.353648  
393.500000	1.280504  
394.000000	1.163178  
394.500000	1.079331  
395.000000	1.038594  
395.500000	0.964299  
396.000000	0.934285  
396.500000	0.934577  
397.000000	0.971248  
397.500000	1.002103  
398.000000	1.085503  
398.500000	1.191423  
399.000000	1.321881  
399.500000	1.509864  
400.000000	1.666283  
400.500000	1.813977  
401.000000	1.884116  
401.500000	1.901069  
402.000000	1.836003  
402.500000	1.701814  
403.000000	1.541843  
403.500000	1.381304  
404.000000	1.296876  
404.500000	1.278639  
405.000000	1.395164  
405.500000	1.538475  
406.000000	1.708085  
406.500000	1.846481  
407.000000	1.897096  
407.500000	1.897051  
408.000000	1.824142  
408.500000	1.740356  
409.000000	1.652931  
409.500000	1.635258  
410.000000	1.634730  
410.500000	1.677045  
411.000000	1.746699  
411.500000	1.826089  
412.000000	1.898838  
412.500000	1.961691  
413.000000	2.008004  
413.500000	2.023004  
414.000000	2.061286  
414.500000	2.084953  
415.000000	2.076684  
415.500000	2.024566  
416.000000	1.938265  
416.500000	1.819430  
417.000000	1.707268  
417.500000	1.596242  
418.000000	1.466185  
418.500000	1.372482  
419.000000	1.307526  
419.500000	1.257617  
420.000000	1.240805  
420.500000	1.236055  
421.000000	1.219464  
421.500000	1.236057  
422.000000	1.289266  
422.500000	1.317240  
423.000000	1.347846  
423.500000	1.386555  
424.000000	1.407419  
424.500000	1.448544  
425.000000	1.480040  
425.500000	1.480057  
426.000000	1.455834  
426.500000	1.439175  
427.000000	1.381727  
427.500000	1.319179  
428.000000	1.265180  
428.500000	1.208482  
429.000000	1.177243  
429.500000	1.170150  
430.000000	1.183153  
430.500000	1.208468  
431.000000	1.247337  
431.500000	1.263747  
432.000000	1.275402  
432.500000	1.266019  
433.000000	1.251906  
433.500000	1.235212  
434.000000	1.203046  
434.500000	1.174865  
435.000000	1.179476  
435.500000	1.191398  
436.000000	1.209212  
436.500000	1.241521  
437.000000	1.255501  
437.500000	1.275839  
438.000000	1.291565  
438.500000	1.279735  
439.000000	1.244015  
439.500000	1.228748  
440.000000	1.209216  
440.500000	1.209917  
441.000000	1.228030  
441.500000	1.237012  
442.000000	1.257115  
442.500000	1.280936  
443.000000	1.279102  
443.500000	1.245140  
444.000000	1.208270  
444.500000	1.171596  

