PE FL                   SPECTRUM    ASCII       PEDS        1.60        
  -1
PM2A6E~1
23/10/12
11:53:05.00
23/10/12
11:53:05.00


444.500000
1









LS55
35.00
5.00
5.00
SCAN
1
20
100
500
0
500
0
2
0
1
7
ON
500 450 
1 0 0
#HDR
-1
-1
#GR
NM

0.00002384185791015625
0.0
250.000000
0.500000
390
8
9.207097
-5.000000
#DATA
250.000000	-5.000000 
250.500000	-1.386820 
251.000000	1.437795  
251.500000	2.808722  
252.000000	3.344489  
252.500000	3.131710  
253.000000	1.845931  
253.500000	-0.415902 
254.000000	-2.306767 
254.500000	-3.627433 
255.000000	-4.176727 
255.500000	-4.336192 
256.000000	-4.201217 
256.500000	-3.778675 
257.000000	-2.960588 
257.500000	-2.064317 
258.000000	-1.611997 
258.500000	-1.278789 
259.000000	-1.318493 
259.500000	-1.510090 
260.000000	-1.921974 
260.500000	-2.152656 
261.000000	-2.615639 
261.500000	-2.719648 
262.000000	-2.478929 
262.500000	-2.229616 
263.000000	-1.633702 
263.500000	-1.150902 
264.000000	-0.836176 
264.500000	-0.824715 
265.000000	-0.796942 
265.500000	-1.298886 
266.000000	-1.874562 
266.500000	-2.294359 
267.000000	-2.740100 
267.500000	-2.916979 
268.000000	-3.059481 
268.500000	-3.269885 
269.000000	-3.632347 
269.500000	-3.582194 
270.000000	-3.536462 
270.500000	-3.444257 
271.000000	-3.046822 
271.500000	-2.504878 
272.000000	-1.896012 
272.500000	-1.357701 
273.000000	-0.767152 
273.500000	-0.813843 
274.000000	-0.952276 
274.500000	-1.055265 
275.000000	-1.536996 
275.500000	-2.083518 
276.000000	-2.504079 
276.500000	-2.723503 
277.000000	-3.017548 
277.500000	-2.748816 
278.000000	-2.458656 
278.500000	-1.963210 
279.000000	-1.045367 
279.500000	-0.202725 
280.000000	0.745969  
280.500000	1.591770  
281.000000	2.128622  
281.500000	1.948593  
282.000000	1.604152  
282.500000	1.032847  
283.000000	-0.121373 
283.500000	-1.395605 
284.000000	-2.461208 
284.500000	-2.930987 
285.000000	-3.203866 
285.500000	-3.042861 
286.000000	-2.626168 
286.500000	-1.777705 
287.000000	-0.462709 
287.500000	0.333576  
288.000000	0.615235  
288.500000	0.814237  
289.000000	1.083376  
289.500000	0.777382  
290.000000	0.314394  
290.500000	-0.007396 
291.000000	-0.166801 
291.500000	-0.016405 
292.000000	0.141586  
292.500000	-0.008110 
293.000000	-0.003662 
293.500000	0.198679  
294.000000	-0.028286 
294.500000	-0.284338 
295.000000	-0.386465 
295.500000	-0.517292 
296.000000	-0.460487 
296.500000	-0.112507 
297.000000	0.366034  
297.500000	0.976580  
298.000000	1.870919  
298.500000	2.737512  
299.000000	3.587327  
299.500000	4.248144  
300.000000	4.509229  
300.500000	4.345020  
301.000000	3.913279  
301.500000	3.290034  
302.000000	2.120440  
302.500000	1.129551  
303.000000	0.482863  
303.500000	0.343374  
304.000000	0.505263  
304.500000	0.994275  
305.000000	1.603586  
305.500000	1.953863  
306.000000	2.404532  
306.500000	2.324991  
307.000000	2.342588  
307.500000	2.193968  
308.000000	2.436774  
308.500000	2.842937  
309.000000	3.632341  
309.500000	4.592251  
310.000000	5.107593  
310.500000	5.498432  
311.000000	5.700094  
311.500000	5.939484  
312.000000	5.826722  
312.500000	5.679844  
313.000000	5.475282  
313.500000	5.450565  
314.000000	5.704701  
314.500000	5.676722  
315.000000	5.517760  
315.500000	5.503095  
316.000000	5.789461  
316.500000	6.163621  
317.000000	6.716647  
317.500000	7.270139  
318.000000	7.750533  
318.500000	8.160970  
319.000000	8.065284  
319.500000	7.660350  
320.000000	6.938685  
320.500000	5.931714  
321.000000	5.091860  
321.500000	4.452747  
322.000000	4.094903  
322.500000	4.158767  
323.000000	4.745005  
323.500000	5.510440  
324.000000	6.659244  
324.500000	7.834083  
325.000000	8.679096  
325.500000	9.207097  
326.000000	9.119750  
326.500000	8.591100  
327.000000	7.748619  
327.500000	6.797415  
328.000000	5.794953  
328.500000	5.108864  
329.000000	4.874842  
329.500000	4.909820  
330.000000	5.364114  
330.500000	5.716573  
331.000000	5.940691  
331.500000	5.947134  
332.000000	5.693546  
332.500000	5.337214  
333.000000	4.964123  
333.500000	4.650865  
334.000000	4.418337  
334.500000	4.530890  
335.000000	4.637673  
335.500000	4.684830  
336.000000	4.713470  
336.500000	4.550139  
337.000000	4.200387  
337.500000	3.854218  
338.000000	3.520546  
338.500000	3.151940  
339.000000	2.947846  
339.500000	2.814189  
340.000000	2.697797  
340.500000	2.718918  
341.000000	2.704318  
341.500000	2.507856  
342.000000	2.265540  
342.500000	2.163069  
343.000000	2.138187  
343.500000	2.241340  
344.000000	2.359175  
344.500000	2.388888  
345.000000	2.435761  
345.500000	2.510827  
346.000000	2.430666  
346.500000	2.133209  
347.000000	1.812705  
347.500000	1.478628  
348.000000	1.226653  
348.500000	1.142351  
349.000000	1.207843  
349.500000	1.396821  
350.000000	1.633773  
350.500000	1.838741  
351.000000	1.849619  
351.500000	1.849024  
352.000000	1.759303  
352.500000	1.628086  
353.000000	1.532372  
353.500000	1.563950  
354.000000	1.666171  
354.500000	1.823721  
355.000000	1.941270  
355.500000	1.924781  
356.000000	1.909869  
356.500000	1.875322  
357.000000	1.739741  
357.500000	1.564622  
358.000000	1.432816  
358.500000	1.407890  
359.000000	1.538791  
359.500000	1.777288  
360.000000	1.936024  
360.500000	2.064291  
361.000000	2.244593  
361.500000	2.377755  
362.000000	2.391354  
362.500000	2.324051  
363.000000	2.170302  
363.500000	1.987702  
364.000000	1.837739  
364.500000	1.694264  
365.000000	1.493253  
365.500000	1.418624  
366.000000	1.457128  
366.500000	1.500372  
367.000000	1.622449  
367.500000	1.776728  
368.000000	1.961949  
368.500000	2.115940  
369.000000	2.257872  
369.500000	2.298562  
370.000000	2.316506  
370.500000	2.301408  
371.000000	2.195399  
371.500000	2.124651  
372.000000	2.038593  
372.500000	2.003357  
373.000000	2.014843  
373.500000	2.078966  
374.000000	2.176218  
374.500000	2.268485  
375.000000	2.334532  
375.500000	2.273693  
376.000000	2.171295  
376.500000	2.043683  
377.000000	1.915174  
377.500000	1.837218  
378.000000	1.804325  
378.500000	1.838984  
379.000000	1.916983  
379.500000	2.064543  
380.000000	2.207832  
380.500000	2.290739  
381.000000	2.357621  
381.500000	2.342393  
382.000000	2.368330  
382.500000	2.386585  
383.000000	2.327021  
383.500000	2.256028  
384.000000	2.209358  
384.500000	2.236889  
385.000000	2.171430  
385.500000	2.073527  
386.000000	1.951931  
386.500000	1.912149  
387.000000	1.948016  
387.500000	1.932601  
388.000000	1.910336  
388.500000	1.857259  
389.000000	1.882581  
389.500000	1.895580  
390.000000	1.918896  
390.500000	1.889584  
391.000000	1.899216  
391.500000	1.951482  
392.000000	1.969296  
392.500000	2.041165  
393.000000	2.097930  
393.500000	2.190112  
394.000000	2.258843  
394.500000	2.303852  
395.000000	2.320276  
395.500000	2.287015  
396.000000	2.224961  
396.500000	2.121352  
397.000000	2.058510  
397.500000	2.001163  
398.000000	1.944316  
398.500000	1.906647  
399.000000	1.877216  
399.500000	1.885771  
400.000000	1.918153  
400.500000	1.954260  
401.000000	1.982541  
401.500000	2.033144  
402.000000	2.059447  
402.500000	2.036400  
403.000000	1.958101  
403.500000	1.829284  
404.000000	1.695341  
404.500000	1.575328  
405.000000	1.461594  
405.500000	1.415388  
406.000000	1.447146  
406.500000	1.564963  
407.000000	1.709018  
407.500000	1.858874  
408.000000	1.985429  
408.500000	2.090680  
409.000000	2.156602  
409.500000	2.140537  
410.000000	2.078146  
410.500000	1.983266  
411.000000	1.907599  
411.500000	1.813416  
412.000000	1.737108  
412.500000	1.683725  
413.000000	1.653620  
413.500000	1.657983  
414.000000	1.642528  
414.500000	1.649232  
415.000000	1.626883  
415.500000	1.646731  
416.000000	1.641102  
416.500000	1.648952  
417.000000	1.663877  
417.500000	1.665824  
418.000000	1.676392  
418.500000	1.636958  
419.000000	1.617241  
419.500000	1.549735  
420.000000	1.501904  
420.500000	1.445551  
421.000000	1.414844  
421.500000	1.403803  
422.000000	1.399550  
422.500000	1.389435  
423.000000	1.324491  
423.500000	1.280873  
424.000000	1.201741  
424.500000	1.105948  
425.000000	1.025743  
425.500000	0.982033  
426.000000	0.970744  
426.500000	1.018168  
427.000000	1.099911  
427.500000	1.186818  
428.000000	1.297722  
428.500000	1.403171  
429.000000	1.473717  
429.500000	1.525964  
430.000000	1.555085  
430.500000	1.557260  
431.000000	1.555359  
431.500000	1.537395  
432.000000	1.480979  
432.500000	1.402944  
433.000000	1.315576  
433.500000	1.226594  
434.000000	1.134175  
434.500000	1.046461  
435.000000	1.005335  
435.500000	1.027662  
436.000000	1.084197  
436.500000	1.137900  
437.000000	1.180477  
437.500000	1.227878  
438.000000	1.261850  
438.500000	1.250054  
439.000000	1.188517  
439.500000	1.105229  
440.000000	1.035779  
440.500000	0.982662  
441.000000	0.922423  
441.500000	0.870766  
442.000000	0.879028  
442.500000	0.915212  
443.000000	0.956818  
443.500000	1.000937  
444.000000	1.046038  
444.500000	1.113595  

