PE FL                   SPECTRUM    ASCII       PEDS        1.60        
  -1
PM2A0E~1
23/10/12
11:49:02.00
23/10/12
11:49:02.00


444.500000
1









LS55
5.00
5.00
5.00
SCAN
1
20
100
500
0
500
0
2
0
1
7
ON
500 450 
1 0 0
#HDR
-1
-1
#GR
NM

0.00002384185791015625
0.0
250.000000
0.500000
390
8
50.548440
-5.000000
#DATA
250.000000	-5.000000 
250.500000	-4.105835 
251.000000	-3.555011 
251.500000	-3.189674 
252.000000	-3.165401 
252.500000	-3.204781 
253.000000	-3.695545 
253.500000	-4.310843 
254.000000	-4.487347 
254.500000	-4.171009 
255.000000	-3.342172 
255.500000	-2.342605 
256.000000	-1.207208 
256.500000	-0.322957 
257.000000	0.513604  
257.500000	0.734118  
258.000000	0.176290  
258.500000	-0.443976 
259.000000	-1.473864 
259.500000	-2.518634 
260.000000	-3.067902 
260.500000	-3.140529 
261.000000	-3.118122 
261.500000	-2.579103 
262.000000	-1.616490 
262.500000	-0.457617 
263.000000	1.083884  
263.500000	2.089770  
264.000000	2.470166  
264.500000	2.650590  
265.000000	2.841687  
265.500000	2.381659  
266.000000	1.712843  
266.500000	0.866453  
267.000000	0.414547  
267.500000	0.484606  
268.000000	0.259394  
268.500000	-0.187582 
269.000000	-0.714745 
269.500000	-0.919598 
270.000000	-1.361637 
270.500000	-1.671572 
271.000000	-2.156648 
271.500000	-2.290400 
272.000000	-2.030961 
272.500000	-2.143769 
273.000000	-2.258767 
273.500000	-2.554336 
274.000000	-2.678980 
274.500000	-3.253936 
275.000000	-3.735960 
275.500000	-4.064754 
276.000000	-4.020914 
276.500000	-3.614723 
277.000000	-3.372104 
277.500000	-3.120081 
278.000000	-3.010079 
278.500000	-2.679353 
279.000000	-2.514551 
279.500000	-2.515219 
280.000000	-2.495459 
280.500000	-2.397982 
281.000000	-2.160859 
281.500000	-1.893178 
282.000000	-1.724678 
282.500000	-1.848223 
283.000000	-1.941764 
283.500000	-2.062325 
284.000000	-2.521179 
284.500000	-2.930763 
285.000000	-3.377950 
285.500000	-3.727402 
286.000000	-3.845539 
286.500000	-3.721796 
287.000000	-3.794171 
287.500000	-3.634425 
288.000000	-3.208905 
288.500000	-2.749024 
289.000000	-1.966756 
289.500000	-1.245401 
290.000000	-0.685689 
290.500000	-0.258582 
291.000000	0.048248  
291.500000	-0.177403 
292.000000	-0.565661 
292.500000	-1.242941 
293.000000	-1.939995 
293.500000	-2.195067 
294.000000	-2.200248 
294.500000	-2.197763 
295.000000	-1.967876 
295.500000	-1.240415 
296.000000	-0.741803 
296.500000	-0.288620 
297.000000	-0.145617 
297.500000	-0.321036 
298.000000	-0.319039 
298.500000	-0.107100 
299.000000	-0.054577 
299.500000	-0.120137 
300.000000	0.048242  
300.500000	0.010337  
301.000000	-0.096035 
301.500000	-0.235346 
302.000000	-0.640520 
302.500000	-1.021311 
303.000000	-1.081959 
303.500000	-0.866937 
304.000000	-0.665918 
304.500000	-0.086857 
305.000000	0.181699  
305.500000	0.246578  
306.000000	0.459039  
306.500000	0.440824  
307.000000	0.214392  
307.500000	-0.098710 
308.000000	-0.261947 
308.500000	-0.280940 
309.000000	0.206592  
309.500000	0.806120  
310.000000	1.233344  
310.500000	1.687233  
311.000000	2.170742  
311.500000	2.791990  
312.000000	3.325040  
312.500000	3.440594  
313.000000	3.400388  
313.500000	3.382645  
314.000000	3.505859  
314.500000	3.453292  
315.000000	3.299754  
315.500000	3.184683  
316.000000	3.443537  
316.500000	4.092551  
317.000000	4.657808  
317.500000	5.290651  
318.000000	5.722534  
318.500000	6.292835  
319.000000	6.779300  
319.500000	7.138410  
320.000000	7.264286  
320.500000	7.343848  
321.000000	7.552316  
321.500000	7.650782  
322.000000	7.881673  
322.500000	8.076674  
323.000000	8.153401  
323.500000	8.212170  
324.000000	8.384572  
324.500000	8.608138  
325.000000	8.846886  
325.500000	9.171258  
326.000000	9.581353  
326.500000	9.979987  
327.000000	10.487023 
327.500000	10.909245 
328.000000	11.089582 
328.500000	11.279721 
329.000000	11.406876 
329.500000	11.402175 
330.000000	11.360924 
330.500000	11.353429 
331.000000	11.216511 
331.500000	11.165233 
332.000000	11.317661 
332.500000	11.486868 
333.000000	11.636209 
333.500000	11.764527 
334.000000	11.967431 
334.500000	12.154034 
335.000000	12.292418 
335.500000	12.367975 
336.000000	12.363013 
336.500000	12.677830 
337.000000	13.138652 
337.500000	13.572840 
338.000000	13.952878 
338.500000	14.552711 
339.000000	15.289890 
339.500000	15.698353 
340.000000	15.847228 
340.500000	15.653857 
341.000000	15.413233 
341.500000	15.132178 
342.000000	14.699030 
342.500000	14.066062 
343.000000	13.607496 
343.500000	13.670414 
344.000000	13.857455 
344.500000	14.048789 
345.000000	14.401050 
345.500000	15.025384 
346.000000	15.853563 
346.500000	16.933852 
347.000000	17.869669 
347.500000	18.772475 
348.000000	19.915460 
348.500000	21.037847 
349.000000	21.923810 
349.500000	22.742016 
350.000000	23.443684 
350.500000	24.105007 
351.000000	24.772467 
351.500000	25.193772 
352.000000	25.419675 
352.500000	25.906898 
353.000000	26.526207 
353.500000	27.111524 
354.000000	27.953376 
354.500000	29.104731 
355.000000	30.685472 
355.500000	32.727327 
356.000000	35.058856 
356.500000	37.321600 
357.000000	39.723778 
357.500000	41.870214 
358.000000	43.623417 
358.500000	44.918124 
359.000000	45.644868 
359.500000	45.871525 
360.000000	46.086211 
360.500000	46.433488 
361.000000	46.621178 
361.500000	46.786754 
362.000000	46.911961 
362.500000	47.384020 
363.000000	47.943975 
363.500000	48.424071 
364.000000	48.625863 
364.500000	48.662623 
365.000000	48.779246 
365.500000	48.728187 
366.000000	48.409484 
366.500000	47.561306 
367.000000	46.792336 
367.500000	46.027323 
368.000000	45.121730 
368.500000	44.482542 
369.000000	43.954235 
369.500000	43.809287 
370.000000	43.864445 
370.500000	43.888082 
371.000000	43.571232 
371.500000	43.192713 
372.000000	42.903158 
372.500000	42.456449 
373.000000	42.489679 
373.500000	42.672269 
374.000000	43.367671 
374.500000	44.256975 
375.000000	45.349114 
375.500000	46.242149 
376.000000	46.815807 
376.500000	47.432563 
377.000000	47.673019 
377.500000	47.899691 
378.000000	48.031140 
378.500000	48.213026 
379.000000	48.223559 
379.500000	48.067170 
380.000000	47.548843 
380.500000	46.743982 
381.000000	45.961729 
381.500000	44.878205 
382.000000	43.898395 
382.500000	43.080010 
383.000000	42.463367 
383.500000	41.831191 
384.000000	41.132379 
384.500000	40.251123 
385.000000	39.386442 
385.500000	38.807542 
386.000000	38.187635 
386.500000	37.726504 
387.000000	37.248903 
387.500000	36.830716 
388.000000	36.401782 
388.500000	35.721569 
389.000000	34.595092 
389.500000	33.069249 
390.000000	31.333074 
390.500000	29.413716 
391.000000	27.491953 
391.500000	25.304597 
392.000000	23.152432 
392.500000	21.292527 
393.000000	19.803448 
393.500000	18.649561 
394.000000	17.818990 
394.500000	17.434198 
395.000000	17.402312 
395.500000	17.715782 
396.000000	17.818981 
396.500000	17.742458 
397.000000	17.582641 
397.500000	17.244422 
398.000000	16.597113 
398.500000	15.728175 
399.000000	14.845245 
399.500000	14.035846 
400.000000	13.449053 
400.500000	12.906481 
401.000000	12.426984 
401.500000	12.118481 
402.000000	11.971165 
402.500000	11.852487 
403.000000	11.667328 
403.500000	11.515681 
404.000000	11.430007 
404.500000	11.449705 
405.000000	11.390924 
405.500000	11.343975 
406.000000	11.218921 
406.500000	11.056645 
407.000000	10.793389 
407.500000	10.418812 
408.000000	9.958455  
408.500000	9.559920  
409.000000	9.271190  
409.500000	9.056121  
410.000000	9.053455  
410.500000	9.090323  
411.000000	9.232084  
411.500000	9.380537  
412.000000	9.438605  
412.500000	9.451063  
413.000000	9.521567  
413.500000	9.560253  
414.000000	9.499964  
414.500000	9.514682  
415.000000	9.514409  
415.500000	9.609838  
416.000000	9.766026  
416.500000	9.900744  
417.000000	10.083195 
417.500000	10.408273 
418.000000	10.753001 
418.500000	11.037864 
419.000000	11.280434 
419.500000	11.414923 
420.000000	11.572337 
420.500000	11.732924 
421.000000	11.785852 
421.500000	11.859480 
422.000000	12.140279 
422.500000	12.558570 
423.000000	13.062568 
423.500000	13.622262 
424.000000	14.115522 
424.500000	14.709911 
425.000000	15.335134 
425.500000	15.809370 
426.000000	16.149302 
426.500000	16.406545 
427.000000	16.549388 
427.500000	16.643993 
428.000000	16.754859 
428.500000	16.817415 
429.000000	17.142430 
429.500000	17.769790 
430.000000	18.620018 
430.500000	19.731398 
431.000000	21.064808 
431.500000	22.481189 
432.000000	23.963967 
432.500000	25.723300 
433.000000	27.539518 
433.500000	29.397003 
434.000000	31.298669 
434.500000	33.238322 
435.000000	35.119682 
435.500000	36.906695 
436.000000	38.337192 
436.500000	39.201137 
437.000000	39.751386 
437.500000	39.997801 
438.000000	39.989375 
438.500000	39.812348 
439.000000	39.733190 
439.500000	39.872510 
440.000000	40.455999 
440.500000	41.329631 
441.000000	42.323707 
441.500000	43.522019 
442.000000	44.770940 
442.500000	46.156443 
443.000000	47.566795 
443.500000	48.810654 
444.000000	49.743996 
444.500000	50.548440 

