PE FL                   SPECTRUM    ASCII       PEDS        1.60        
  -1
PM3AF5~1
23/10/12
11:55:06.00
23/10/12
11:55:06.00


444.500000
1









LS55
50.00
5.00
5.00
SCAN
1
20
100
500
0
500
0
2
0
1
7
ON
500 450 
1 0 0
#HDR
-1
-1
#GR
NM

0.00002384185791015625
0.0
250.000000
0.500000
390
8
6.564038
-3.103831
#DATA
250.000000	0.697000  
250.500000	-0.364501 
251.000000	-1.245348 
251.500000	-1.562955 
252.000000	-1.955336 
252.500000	-2.244843 
253.000000	-2.332761 
253.500000	-2.183259 
254.000000	-2.245031 
254.500000	-2.540186 
255.000000	-2.681826 
255.500000	-2.610872 
256.000000	-2.226835 
256.500000	-2.074799 
257.000000	-1.842847 
257.500000	-1.667651 
258.000000	-1.491844 
258.500000	-1.254742 
259.000000	-1.305778 
259.500000	-1.466696 
260.000000	-1.351581 
260.500000	-0.995680 
261.000000	-0.826796 
261.500000	-0.703458 
262.000000	-0.840612 
262.500000	-1.277803 
263.000000	-1.706302 
263.500000	-2.222036 
264.000000	-2.779231 
264.500000	-3.103831 
265.000000	-3.015128 
265.500000	-2.777157 
266.000000	-2.497563 
266.500000	-2.169171 
267.000000	-1.934156 
267.500000	-1.722779 
268.000000	-1.770560 
268.500000	-1.842265 
269.000000	-1.843792 
269.500000	-1.514441 
270.000000	-1.153341 
270.500000	-0.849418 
271.000000	-0.664811 
271.500000	-0.561147 
272.000000	-0.472367 
272.500000	-0.734739 
273.000000	-1.028344 
273.500000	-1.499022 
274.000000	-1.742562 
274.500000	-1.780281 
275.000000	-1.636035 
275.500000	-1.536534 
276.000000	-1.582821 
276.500000	-1.756202 
277.000000	-1.872054 
277.500000	-1.803596 
278.000000	-1.914557 
278.500000	-2.359023 
279.000000	-2.430725 
279.500000	-1.963426 
280.000000	-1.293216 
280.500000	-0.509802 
281.000000	-0.277531 
281.500000	-0.120347 
282.000000	0.462638  
282.500000	0.944345  
283.000000	0.636110  
283.500000	0.374386  
284.000000	0.492083  
284.500000	0.853538  
285.000000	1.338563  
285.500000	1.461638  
286.000000	1.189802  
286.500000	1.114688  
287.000000	0.997196  
287.500000	0.527305  
288.000000	-0.118546 
288.500000	-0.364021 
289.000000	-0.311209 
289.500000	0.035418  
290.000000	0.486514  
290.500000	0.660968  
291.000000	1.003808  
291.500000	0.818228  
292.000000	0.449883  
292.500000	-0.243332 
293.000000	-0.445839 
293.500000	-0.280328 
294.000000	0.384255  
294.500000	1.558852  
295.000000	2.840541  
295.500000	4.450646  
296.000000	5.578610  
296.500000	6.097074  
297.000000	5.929693  
297.500000	5.919154  
298.000000	5.481046  
298.500000	5.075326  
299.000000	4.678142  
299.500000	4.416094  
300.000000	4.353875  
300.500000	4.173245  
301.000000	3.604397  
301.500000	2.648715  
302.000000	2.247888  
302.500000	1.929691  
303.000000	2.065006  
303.500000	2.363043  
304.000000	2.962863  
304.500000	3.649914  
305.000000	4.268467  
305.500000	4.551486  
306.000000	4.498931  
306.500000	4.586086  
307.000000	4.618964  
307.500000	5.011587  
308.000000	5.533845  
308.500000	5.793265  
309.000000	5.852379  
309.500000	5.672951  
310.000000	5.365322  
310.500000	4.884157  
311.000000	4.421648  
311.500000	4.077427  
312.000000	4.047026  
312.500000	4.757132  
313.000000	5.351049  
313.500000	5.798728  
314.000000	6.198564  
314.500000	6.469659  
315.000000	6.313299  
315.500000	5.989542  
316.000000	5.675535  
316.500000	5.222341  
317.000000	5.075457  
317.500000	5.206765  
318.000000	5.437937  
318.500000	5.778613  
319.000000	6.277796  
319.500000	6.459532  
320.000000	6.443243  
320.500000	6.564038  
321.000000	6.544548  
321.500000	6.246789  
322.000000	6.011348  
322.500000	5.797449  
323.000000	5.781284  
323.500000	5.946659  
324.000000	5.953333  
324.500000	5.686217  
325.000000	5.665566  
325.500000	5.801815  
326.000000	5.798239  
326.500000	5.724033  
327.000000	5.450668  
327.500000	5.311766  
328.000000	5.246306  
328.500000	5.142515  
329.000000	4.606717  
329.500000	4.120680  
330.000000	3.760899  
330.500000	3.756430  
331.000000	3.768547  
331.500000	3.544782  
332.000000	3.418200  
332.500000	3.363537  
333.000000	3.535178  
333.500000	3.513760  
334.000000	3.328036  
334.500000	3.084244  
335.000000	3.184335  
335.500000	3.288444  
336.000000	3.271023  
336.500000	3.219573  
337.000000	3.148585  
337.500000	3.271247  
338.000000	3.408353  
338.500000	3.308052  
339.000000	3.084546  
339.500000	3.092692  
340.000000	2.960943  
340.500000	2.865210  
341.000000	2.652248  
341.500000	2.409189  
342.000000	2.260726  
342.500000	2.255068  
343.000000	2.162857  
343.500000	2.101540  
344.000000	2.300497  
344.500000	2.459402  
345.000000	2.765746  
345.500000	2.982410  
346.000000	3.170320  
346.500000	3.361137  
347.000000	3.567680  
347.500000	3.752354  
348.000000	3.796462  
348.500000	3.909183  
349.000000	3.981911  
349.500000	4.075511  
350.000000	4.076277  
350.500000	3.913366  
351.000000	3.685381  
351.500000	3.435373  
352.000000	3.327542  
352.500000	3.170847  
353.000000	2.944583  
353.500000	2.823975  
354.000000	2.762357  
354.500000	2.823944  
355.000000	2.867837  
355.500000	2.970384  
356.000000	3.048296  
356.500000	3.245062  
357.000000	3.542365  
357.500000	3.750162  
358.000000	3.869437  
358.500000	3.836199  
359.000000	3.779453  
359.500000	3.634307  
360.000000	3.458839  
360.500000	3.258226  
361.000000	3.073942  
361.500000	3.128055  
362.000000	3.331380  
362.500000	3.591264  
363.000000	3.771238  
363.500000	3.940527  
364.000000	4.015048  
364.500000	4.069346  
365.000000	4.147904  
365.500000	4.090416  
366.000000	3.995777  
366.500000	3.965505  
367.000000	4.079515  
367.500000	4.261637  
368.000000	4.533057  
368.500000	4.746913  
369.000000	4.840033  
369.500000	4.906024  
370.000000	4.893740  
370.500000	4.745092  
371.000000	4.416157  
371.500000	4.105339  
372.000000	3.861305  
372.500000	3.693378  
373.000000	3.608626  
373.500000	3.542958  
374.000000	3.541549  
374.500000	3.675564  
375.000000	3.897261  
375.500000	4.045862  
376.000000	4.129337  
376.500000	4.222064  
377.000000	4.277732  
377.500000	4.474133  
378.000000	4.684242  
378.500000	4.773334  
379.000000	4.804570  
379.500000	4.845142  
380.000000	4.911938  
380.500000	4.927472  
381.000000	4.935384  
381.500000	4.857748  
382.000000	4.866176  
382.500000	4.892823  
383.000000	4.866745  
383.500000	4.766192  
384.000000	4.644839  
384.500000	4.605961  
385.000000	4.597139  
385.500000	4.586436  
386.000000	4.555685  
386.500000	4.567036  
387.000000	4.554999  
387.500000	4.521619  
388.000000	4.444780  
388.500000	4.272975  
389.000000	4.087838  
389.500000	3.929114  
390.000000	3.746864  
390.500000	3.634376  
391.000000	3.582085  
391.500000	3.506039  
392.000000	3.447511  
392.500000	3.436878  
393.000000	3.416414  
393.500000	3.400908  
394.000000	3.426319  
394.500000	3.408175  
395.000000	3.423479  
395.500000	3.461757  
396.000000	3.431411  
396.500000	3.400645  
397.000000	3.418057  
397.500000	3.468694  
398.000000	3.538629  
398.500000	3.601371  
399.000000	3.581680  
399.500000	3.512157  
400.000000	3.384023  
400.500000	3.170051  
401.000000	2.918003  
401.500000	2.657037  
402.000000	2.486896  
402.500000	2.458884  
403.000000	2.508709  
403.500000	2.629930  
404.000000	2.799604  
404.500000	3.010408  
405.000000	3.175277  
405.500000	3.273080  
406.000000	3.268217  
406.500000	3.239352  
407.000000	3.235005  
407.500000	3.219307  
408.000000	3.205443  
408.500000	3.189745  
409.000000	3.213488  
409.500000	3.229673  
410.000000	3.170400  
410.500000	3.038940  
411.000000	2.858765  
411.500000	2.675160  
412.000000	2.479005  
412.500000	2.287127  
413.000000	2.109114  
413.500000	2.021701  
414.000000	2.026402  
414.500000	2.049788  
415.000000	2.111828  
415.500000	2.189936  
416.000000	2.291819  
416.500000	2.385503  
417.000000	2.430564  
417.500000	2.441626  
418.000000	2.429149  
418.500000	2.430073  
419.000000	2.396510  
419.500000	2.342811  
420.000000	2.255805  
420.500000	2.173505  
421.000000	2.094236  
421.500000	1.999590  
422.000000	1.916407  
422.500000	1.824867  
423.000000	1.754096  
423.500000	1.719833  
424.000000	1.707393  
424.500000	1.674034  
425.000000	1.654783  
425.500000	1.634215  
426.000000	1.607281  
426.500000	1.590459  
427.000000	1.571125  
427.500000	1.551075  
428.000000	1.580014  
428.500000	1.657414  
429.000000	1.709568  
429.500000	1.738112  
430.000000	1.732353  
430.500000	1.700927  
431.000000	1.657657  
431.500000	1.611997  
432.000000	1.548437  
432.500000	1.508735  
433.000000	1.509977  
433.500000	1.540871  
434.000000	1.570895  
434.500000	1.590800  
435.000000	1.607696  
435.500000	1.614540  
436.000000	1.603458  
436.500000	1.563349  
437.000000	1.509862  
437.500000	1.466298  
438.000000	1.453793  
438.500000	1.437133  
439.000000	1.419272  
439.500000	1.393664  
440.000000	1.375460  
440.500000	1.356209  
441.000000	1.329393  
441.500000	1.288596  
442.000000	1.244007  
442.500000	1.219264  
443.000000	1.195727  
443.500000	1.183971  
444.000000	1.172693  
444.500000	1.178454  

